62 59 54 47 40 33 26 19 12 6 1 0 0 0 3 23 54 97 144 191 231 254 254 254 254 248 230 210 191 172 153 135 118 102 90 80 74 71 69 68 66 64 61 56 50 42 34 26 19 12 6 1 0 0 0 0 10 34 69 112 157 199 232 252 254 254 247 232 215 197 179 162 144 127 112 98 86 77 71 68 66 65 64 62 58 52 45 37 28 20 13 6 0 0 0 0 0 0 11 33 67 109 152 194 226 245 253 249 239 224 207 188 170 152 134 117 100 85 73 65 60 57 57 57 56 54 51 46 40 33 26 18 11 4 0 0 0 0 0 0 0 0 16 47 87 131 175 211 235 245 245 235 220 203 185 167 149 132 116 101 87 77 71 67 66 67 67 67 66 63 59 53 46 39 32 25 19 14 10 7 5 4 3 4 7 14 27 50 82 122 163 201 230 247 252 247 234 217 198 179 160 142 125 109 93 81 72 66 63 62 63 63 63 62 59 55 50 45 39 33 28 23 19 15 13 11 9 8 8 8 9 13 20 36 61 95 134 174 209 233 245 246 238 224 208 190 172 153 136 119 103 90 80 73 70 70 71 73 73 72 70 66 61 55 49 43 37 31 26 22 19 17 15 14 14 14 15 17 22 31 47 73 107 146 186 220 244 254 254 251 238 222 204 185 167 148 131 116 102 92 85 82 82 83 85 85 85 83 79 73 67 60 53 46 40 35 30 27 24 22 20 20 20 21 23 28 39 57 85 120 159 197 229 250 254 254 249 235 218 201 183 165 147 130 115 102 91 85 82 82 84 86 87 86 84 80 74 67 60 53 46 40 35 31 27 24 21 19 18 18 19 21 27 40 61 92 128 168 205 234 251 254 254 244 230 212 195 177 159 141 126 110 98 88 82 79 79 81 83 84 83 81 77 72 65 58 51 44 38 33 28 25 22 20 19 18 18 19 21 26 38 58 87 125 165 204 235 254 254 254 250 234 216 197 179 161 145 129 116 104 95 89 85 84 85 85 85 84 81 77 71 65 58 51 44 37 31 26 22 18 16 14 14 14 14 16 21 31 50 77 113 153 194 227 251 254 254 254 242 225 208 190 173 156 139 125 110 99 90 84 82 81 81 82 81 79 76 71 65 58 51 44 37 31 26 22 19 17 15 14 13 13 14 15 19 27 42 65 99 138 180 218 247 254 254 254 254 238 220 202 185 168 153 139 127 116 105 97 91 86 84 85 86 89 91 93 94 93 92 89 85 80 75 70 64 59 53 47 42 37 33 30 29 32 42 60 88 123 162 200 231 252 254 254 254 242 227 210 192 174 155 137 120 105 93 85 80 79 79 79 79 78 75 71 65 58 50 42 33 25 18 12 7 3 1 0 0 0 0 0 2 11 29 56 93 134 175 210 233 245 244 235 220 201 182 163 145 128 113 98 85 74 67 63 61 62 63 63 63 60 57 52 46 39 32 25 18 12 6 2 0 0 0 0 0 0 5 20 44 78 120 165 207 241 254 254 254 254 244 226 207 187 169 150 133 117 103 93 85 81 79 79 80 81 80 78 74 69 63 56 49 42 35 29 23 19 15 12 10 9 10 14 24 44 73 113 157 201 239 254 254 254 254 254 241 222 202 183 164 145 128 113 101 93 89 89 92 96 99 100 100 97 92 86 79 71 63 55 48 41 34 29 25 21 18 17 18 23 36 58 91 131 175 215 246 254 254 254 254 237 219 200 182 164 147 130 116 102 92 85 82 80 80 81 80 79 76 71 66 59 51 44 37 30 24 19 14 11 8 5 4 3 5 11 26 51 86 129 174 215 245 254 254 254 246 229 210 192 174 156 139 124 109 95 85 77 73 71 71 71 71 69 66 62 55 48 40 32 25 18 13 9 5 3 2 0 0 0 0 5 17 39 71 112 155 196 229 249 254 253 242 225 207 187 169 150 133 117 103 90 81 76 73 73 73 73 73 71 68 63 57 50 43 36 29 22 17 12 8 5 3 2 2 3 4 9 19 37 65 102 144 186 222 247 254 254 250 235 215 195 174 153 132 114 96 81 70 62 58 57 58 58 59 57 55 51 46 40 33 27 21 15 10 6 3 0 0 0 0 0 1 4 9 20 40 69 107 150 193 230 254 254 254 254 242 221 198 174 151 130 111 95 84 77 74 76 80 85 90 93 94 93 90 85 79 72 66 59 52 46 41 36 31 28 25 23 23 26 35 51 78 115 157 200 237 254 254 254 254 249 228 205 181 158 136 117 100 87 78 74 74 78 82 88 92 94 94 92 87 81 73 65 57 49 42 35 29 23 19 15 14 16 23 39 65 101 143 189 230 254 254 254 254 254 241 218 193 169 146 126 108 93 84 79 78 80 83 86 88 87 85 81 76 70 63 56 49 41 33 26 19 13 7 3 1 2 10 26 52 90 134 180 222 254 254 254 254 253 233 211 187 165 143 124 106 92 81 76 75 77 81 85 88 88 86 82 75 67 58 49 40 31 24 17 12 8 5 4 3 5 12 26 50 84 127 172 213 245 254 254 254 246 226 204 182 160 139 120 103 88 77 70 66 66 67 69 71 71 69 66 61 54 47 40 32 25 18 12 6 2 0 0 0 0 2 11 28 56 93 136 180 218 245 254 254 250 233 212 190 167 146 126 108 92 80 72 68 68 70 73 76 78 77 75 71 65 58 50 42 35 28 22 17 12 9 7 5 5 6 12 23 45 76 117 160 202 236 254 254 254 245 225 203 181 159 138 119 102 88 78 72 70 71 74 78 80 81 79 75 69 62 54 46 37 29 21 15 9 4 1 0 0 0 2 8 19 39 70 109 153 196 232 254 254 254 254 238 217 196 175 154 135 118 103 90 81 77 75 76 78 80 81 80 78 73 67 59 51 44 36 29 23 18 14 12 10 10 10 12 16 25 41 67 102 143 185 223 249 254 254 254 239 220 199 178 157 138 121 105 91 81 75 72 72 74 76 77 76 73 69 63 55 48 41 34 28 22 17 13 10 8 7 6 9 15 28 50 82 121 162 201 232 250 254 251 239 222 204 184 166 148 130 115 100 88 79 73 71 71 72 73 74 73 72 69 65 60 55 49 44 39 35 32 30 28 28 27 28 29 34 45 63 92 127 167 205 236 254 254 254 250 235 216 197 178 159 140 123 107 92 80 71 65 62 60 59 59 58 55 52 47 42 36 30 24 18 12 7 2 0 0 0 0 0 0 5 16 36 66 103 143 182 214 235 244 243 234 219 202 184 167 149 133 118 105 94 85 80 77 76 76 75 74 72 69 64 57 49 41 32 24 16 9 3 0 0 0 0 0 0 0 0 0 12 38 74 116 160 200 230 248 253 248 236 219 200 181 162 143 126 109 94 81 71 65 62 61 61 60 60 57 54 49 43 36 29 22 16 10 5 1 0 0 0 0 0 1 8 21 42 72 112 155 200 239 254 254 254 254 254 254 239 222 205 188 172 156 142 130 122 117 114 113 113 113 112 109 105 99 92 84 76 67 58 49 40 32 25 20 15 11 9 8 10 18 34 60 95 135 175 209 234 246 247 240 227 212 195 179 163 146 130 115 100 89 81 77 76 78 80 81 82 80 77 72 65 58 51 43 36 30 24 19 14 10 7 5 4 5 10 21 41 71 110 152 194 227 249 254 254 247 231 213 193 173 154 136 120 105 93 84 79 78 79 82 85 87 88 87 83 78 72 65 57 49 41 35 28 23 18 15 12 10 9 10 16 29 52 85 125 166 204 233 250 254 248 235 217 197 177 157 138 121 105 92 82 75 72 73 75 78 80 82 82 80 77 72 67 60 54 47 40 34 28 23 19 17 15 16 19 29 47 74 110 150 190 224 247 254 254 247 232 213 193 172 152 132 115 100 88 80 75 74 75 77 79 81 80 78 75 70 64 58 51 45 39 34 28 24 20 18 16 16 20 29 47 74 110 150 189 222 244 254 254 245 230 212 194 175 156 138 123 108 95 86 80 77 76 77 78 79 79 78 75 70 64 58 51 44 37 31 26 22 20 18 17 18 23 34 53 82 118 156 192 220 238 245 242 232 217 199 181 163 144 127 112 98 87 79 75 74 75 77 79 79 78 76 72 67 62 56 50 44 38 33 29 26 23 22 23 28 40 60 88 124 160 194 220 235 240 235 225 211 195 179 163 148 132 119 105 94 86 81 78 78 78 78 78 77 74 71 66 60 54 47 40 34 29 24 21 20 20 25 35 54 81 115 151 186 214 231 239 238 231 221 209 196 182 168 153 138 125 111 100 93 88 86 84 83 81 78 74 68 62 55 48 41 34 28 22 16 12 9 8 12 23 42 69 101 134 163 185 197 201 197 189 178 166 154 142 129 117 104 93 83 75 71 68 67 67 67 65 63 59 55 51 46 42 38 33 30 27 26 25 26 29 35 47 66 93 126 158 188 210 222 224 219 209 196 183 169 156 142 127 113 100 88 79 74 71 71 71 72 70 67 63 56 49 42 36 30 24 20 17 15 13 11 11 12 16 26 43 68 101 136 170 198 217 225 225 218 206 193 179 164 150 135 122 109 97 89 84 81 80 81 81 81 80 78 74 69 64 58 52 46 40 36 32 29 26 25 24 23 23 24 25 29 38 53 77 107 141 175 203 222 232 232 225 214 200 185 170 155 140 126 113 101 93 87 85 84 85 85 84 82 78 74 68 62 55 49 44 39 35 31 29 27 26 25 26 26 27 28 30 33 39 50 68 94 126 160 192 217 234 240 238 230 218 204 189 173 158 143 128 116 106 98 94 92 92 92 92 90 88 84 79 73 66 60 54 48 42 38 34 32 30 29 29 29 30 31 32 33 35 37 41 50 64 87 116 150 184 214 235 247 248 242 231 217 202 187 171 156 141 127 116 106 99 96 94 95 96 96 95 93 89 83 76 68 60 53 47 43 39 37 35 34 33 32 31 31 31 32 36 44 60 84 115 149 184 213 234 244 244 237 226 212 197 182 167 152 137 124 111 101 93 90 89 89 90 91 90 87 83 77 71 64 57 51 46 42 38 35 33 31 30 30 30 30 31 33 38 48 65 91 124 159 193 221 239 247 246 238 227 213 199 185 171 157 142 128 116 104 95 89 85 83 82 80 78 75 71 66 60 54 47 40 34 28 22 18 15 12 11 10 9 9 10 11 13 19 32 53 83 120 159 196 225 244 251 248 239 225 210 194 179 163 148 133 120 107 96 89 84 82 82 82 81 79 76 71 64 58 51 44 37 32 27 24 21 19 17 16 16 16 17 18 19 21 25 32 47 70 102 140 180 216 243 254 254 254 246 231 214 197 180 164 147 132 118 106 97 91 87 86 86 86 85 83 80 75 69 63 56 49 42 36 30 25 22 19 17 17 17 17 18 19 21 22 25 30 40 58 84 119 157 195 228 251 254 254 254 242 226 208 189 171 154 137 123 109 99 92 88 86 86 87 87 85 83 79 74 68 61 55 48 42 36 31 26 23 20 18 18 18 19 20 21 23 25 28 32 41 58 83 117 156 196 231 254 254 254 254 253 236 217 198 180 162 145 129 116 104 96 90 88 88 89 90 90 89 86 82 76 69 62 54 46 39 33 28 24 21 19 18 18 18 19 20 22 23 25 29 35 48 69 99 136 178 216 248 254 254 254 254 248 229 210 190 171 153 137 122 109 99 92 89 88 88 89 90 90 88 84 79 73 66 58 50 43 36 30 26 23 21 20 20 20 21 21 21 21 24 31 45 69 101 140 183 221 251 254 254 254 254 247 229 211 193 176 158 142 127 114 103 96 91 90 90 90 90 89 86 81 75 68 60 52 44 36 30 24 20 16 14 12 10 10 10 10 12 14 20 32 52 82 121 163 205 240 254 254 254 254 254 237 219 201 183 166 149 133 119 106 96 90 86 84 83 82 81 79 76 71 65 58 50 42 35 28 23 19 16 13 12 10 10 10 10 11 13 17 25 41 66 101 142 186 226 254 254 254 254 254 246 228 209 191 173 155 138 122 108 96 87 82 79 79 79 79 78 76 71 66 58 50 42 34 27 21 16 12 9 8 6 6 5 6 6 8 10 15 27 47 78 117 161 204 241 254 254 254 254 254 236 217 198 180 162 145 128 114 102 92 86 84 83 84 84 84 82 79 73 66 58 50 41 32 24 17 11 7 4 2 2 2 3 4 6 8 13 21 38 64 100 142 187 227 254 254 254 254 254 245 226 206 187 168 149 131 117 103 93 86 83 83 83 84 84 83 79 74 68 60 52 43 35 28 21 16 12 8 5 3 2 1 2 3 5 9 17 32 57 91 133 179 222 254 254 254 254 254 252 234 214 195 176 158 140 125 111 100 92 88 87 87 88 89 88 85 80 74 66 57 48 39 31 24 18 13 10 7 5 4 3 3 3 3 5 11 24 48 83 127 176 224 254 254 254 254 254 254 240 218 197 177 158 140 123 107 93 81 73 68 66 65 65 64 63 60 56 51 45 38 31 24 17 11 5 1 0 0 0 0 0 0 0 0 6 20 44 79 125 174 223 254 254 254 254 254 254 254 246 227 208 189 169 150 132 117 103 94 88 85 84 84 83 81 78 71 64 55 46 36 28 20 13 8 3 0 0 0 0 0 0 1 17 42 79 124 171 215 249 254 254 254 254 240 220 199 178 158 138 121 104 89 78 70 66 65 66 67 67 67 64 59 53 46 38 30 22 15 8 2 0 0 0 0 0 0 0 0 17 48 89 134 181 220 248 254 254 253 236 216 195 173 152 132 113 96 82 71 65 63 64 67 70 73 73 72 69 64 58 51 45 38 32 26 21 17 13 9 5 3 2 6 17 38 70 113 160 208 249 254 254 254 254 254 254 250 234 219 204 190 175 162 151 142 137 133 132 130 127 123 117 109 100 91 80 69 58 47 37 29 22 17 14 11 11 14 23 41 70 109 152 196 233 254 254 254 254 253 236 217 198 178 158 138 120 102 87 76 68 64 62 61 60 57 54 49 44 37 30 24 17 10 3 0 0 0 0 0 0 0 0 0 18 53 94 137 175 204 219 221 212 197 177 156 136 117 97 79 63 49 37 30 26 26 28 31 34 35 36 34 31 26 20 13 7 0 0 0 0 0 0 0 0 0 0 0 0 15 53 99 146 190 222 242 247 242 228 210 189 167 145 124 103 84 68 56 48 44 44 45 48 50 51 51 49 45 40 34 28 21 13 6 0 0 0 0 0 0 0 0 0 4 27 60 104 153 202 243 254 254 254 254 254 235 211 186 163 140 121 103 88 77 71 69 70 73 76 80 82 82 81 78 73 68 61 55 49 42 37 32 27 23 21 19 20 23 31 47 72 107 148 193 236 254 254 254 254 254 254 239 213 187 160 135 112 90 168 212 247 254 254 254 254 251 228 203 177 152 130 111 96 85 77 74 73 73 75 77 79 80 79 78 75 72 68 64 59 55 51 48 45 42 40 39 39 43 53 71 98 131 169 205 232 249 254 249 236 218 197 175 154 134 116 100 87 78 74 73 75 79 83 87 88 88 87 83 78 72 65 58 52 46 40 35 31 28 26 26 30 41 61 90 127 169 209 242 254 254 254 254 242 221 199 176 154 133 115 98 84 74 68 66 66 67 69 70 70 68 64 58 52 44 37 30 23 17 13 9 6 5 6 11 21 40 69 106 148 190 225 251 254 254 254 250 236 221 205 187 168 148 130 114 101 91 83 78 74 71 68 66 62 59 54 49 43 37 30 24 19 14 10 7 5 4 5 10 23 44 74 111 148 182 208 223 227 223 214 201 187 173 159 145 131 119 105 93 83 76 71 68 67 66 64 62 59 55 50 44 38 32 26 21 16 12 8 4 1 0 0 1 11 29 57 92 128 163 191 209 216 215 207 196 183 169 155 141 127 113 100 87 77 70 65 63 62 62 61 59 57 53 48 43 37 32 26 22 18 15 13 11 10 9 9 10 12 16 25 39 61 90 123 157 187 211 229 240 247 250 251 248 243 234 222 208 192 177 162 149 138 127 118 108 98 88 77 66 55 44 34 26 19 13 8 5 3 3 3 3 4 5 6 7 10 15 25 40 63 92 124 154 180 197 206 208 204 196 187 179 174 174 177 183 190 195 196 191 183 172 161 150 139 129 121 110 100 88 76 62 47 30 13 0 0 0 0 0 0 0 0 0 0 0 0 0 0 0 0 0 0 15 38 55 64 68 69 66 62 58 54 49 43 39 36 36 38 42 47 52 57 61 64 66 67 67 70 77 89 107 128 152 175 195 214 230 244 253 253 241 217 186 152 124 105 96 97 105 117 130 142 150 153 151 144 136 128 121 113 106 99 94 89 87 88 93 100 109 119 129 138 146 153 159 164 167 167 165 159 151 141 131 123 115 108 102 97 92 88 82 75 67 59 50 43 39 38 44 54 69 84 97 106 109 107 101 91 82 73 66 61 58 56 56 56 57 59 61 63 64 65 63 60 54 46 37 30 27 27 31 36 41 44 45 45 45 46 48 51 55 60 66 72 78 86 98 114 135 160 186 210 228 240 244 243 236 225 212 199 186 173 160 149 138 129 123 117 113 109 105 100 95 89 83 77 69 63 58 54 53 54 58 62 68 74 80 86 91 95 99 103 108 117 129 149 176 208 242 254 254 254 254 254 254 254 254 254 254 246 229 212 194 177 164 156 151 148 146 143 140 135 129 123 115 106 97 87 77 67 59 51 45 39 33 27 22 17 12 10 10 17 31 56 90 132 180 231 254 254 254 254 254 254 254 254 254 254 254 248 245 252 254 254 254 254 254 254 235 191 143 98 55 16 0 0 0 0 0 0 0 0 0 0 0 0 0 0 0 0 0 0 0 0 0 0 0 0 0 0 0 0 0 0 0 0 0 0 0 0 0 0 0 0 0 0 0 0 0 0 0 0 0 0 0 0 0 0 0 0 0 1 4 7 10 13 15 18 21 23 25 28 30 32 34 36 38 40 42 44 46 47 49 51 52 54 55 56 58 59 60 62 63 64 65 66 67 68 69 70 71 72 73 74 74 75 76 77 77 78 79 79 80 81 81 82 82 83 83 84 84 85 85 86 86 87 87 87 88 88 88 89 89 89 90 90 90 91 91 91 91 92 92 92 92 93 93 93 93 93 94 94 94 94 94 95 95 95 95 95 95 95 96 96 96 96 96 96 96 96 96 97 97 97 97 97 97 97 97 97 97 97 97 97 98 98 98 98 98 98 98 98 98 98 98 98 98 98 98 98 98 98 98 98 98 98 99 99 99 99 99 99 99 99 99 99 99 99 99 99 99 99 99 99 99 99 99 99 99 99 99 99 99 99 99 99 99 99 99 99 99 99 99 99 99 99 99 99 99 99 99 99 99 99 99 99 99 99 99 99 99 99 99 99 99 99 99 99 99 99 99 99 99 99 99 99 99 99 99 99 99 99 99 99 99 99 99 99 99 99 99 99 99 99 99 99 99 99 99 99 99 99 99 99 99 99 99 99 99 99 99 99 99 99 99 99 99 99 99 99 99 99 99 99 99 99 99 99 99 99 99 99 99 99 99 99 99 99 99 100 100 100 100 100 100 100 100 100 100 100 100 100 100 100 100 100 100 100 100 100 100 100 100 100 100 100 100 100 100 100 100 100 100 100 100 100 100 100 100 100 100 100 100 100 100 100 100 100 100 100 100 100 100 100 100 100 100 100 100 100 100 100 100 100 100 100 100 100 100 100 100 100 100 100 100 100 100 100 100 100 100 100 100 100 100 100 100 100 100 100 100 100 100 100 100 100 100 100 100 100 100 100 100 100 100 100 100 100 100 100 100 100 100 100 100 100 100 100 100 100 100 101 104 109 117 126 135 145 155 164 172 180 187 193 199 205 210 214 218 222 225 228 230 232 234 236 237 238 239 240 240 240 240 240 240 240 239 239 238 237 236 235 234 232 231 230 228 227 225 224 222 221 219 217 215 214 212 210 208 207 205 203 201 199 198 196 194 193 191 189 187 186 184 182 181 179 177 176 174 173 171 170 168 167 165 164 163 161 160 159 157 156 155 153 152 151 150 149 148 146 145 144 143 142 141 140 139 138 138 137 136 135 134 133 132 131 131 130 129 129 128 127 127 127 126 125 125 124 124 123 123 122 122 121 121 120 120 119 119 