70 68 67 65 64 63 63 62 61 61 61 60 60 59 59 59 58 58 57 57 56 56 56 58 62 70 82 97 113 128 141 150 155 155 153 148 143 138 133 128 126 122 118 115 111 108 105 102 101 100 99 98 98 97 95 93 90 88 85 82 79 76 73 70 68 65 63 62 60 59 57 56 56 55 54 54 54 53 53 52 51 51 50 50 50 49 49 49 49 50 53 58 66 78 92 105 117 126 129 129 127 124 118 113 108 105 101 99 96 94 92 89 88 86 85 85 85 86 86 86 86 86 85 84 82 81 80 78 77 76 75 74 73 73 72 72 72 72 72 72 72 72 72 73 73 73 74 74 74 74 75 75 75 75 75 76 79 83 91 101 113 124 133 139 142 141 137 132 127 123 118 114 111 109 107 105 103 102 101 101 101 102 103 104 104 105 104 103 102 100 98 97 95 94 93 92 91 91 90 90 89 89 88 88 88 89 89 89 89 90 90 90 90 90 90 90 90 90 90 90 90 91 95 101 111 123 133 144 151 154 153 150 145 139 133 128 125 122 119 117 115 113 111 110 109 108 108 109 109 110 110 110 109 108 106 104 102 100 98 96 95 93 92 91 90 89 89 88 88 87 87 87 87 87 87 87 87 88 88 88 88 88 88 87 87 87 88 90 95 104 115 127 139 150 156 158 157 154 149 143 138 133 129 127 124 122 120 118 116 114 113 112 112 113 113 113 113 113 112 110 109 107 104 102 100 98 96 94 93 92 90 89 89 88 87 87 87 87 86 86 86 86 86 86 86 86 86 86 85 85 85 84 85 87 92 101 113 127 140 152 160 165 165 163 159 154 149 144 140 136 133 131 128 127 125 123 121 121 120 121 121 121 121 120 119 117 114 111 108 105 103 100 97 95 93 91 89 87 86 85 84 83 82 82 81 81 80 80 80 80 79 79 79 80 80 80 80 80 81 83 89 98 111 126 140 153 162 168 169 167 163 158 153 148 143 139 135 131 128 125 122 120 118 117 117 117 117 117 116 115 113 111 108 105 102 98 95 92 89 86 84 81 79 77 76 74 73 72 71 70 70 69 69 68 68 67 67 67 66 66 65 65 64 64 63 63 63 66 72 82 97 114 131 148 162 171 175 176 173 168 163 157 152 147 142 138 134 130 127 123 120 118 117 116 116 115 115 114 112 110 107 103 100 96 92 88 85 81 78 76 73 71 68 67 65 63 62 61 61 60 60 59 59 59 58 58 58 57 57 57 56 56 55 55 55 55 54 54 54 54 54 55 55 55 56 56 57 57 60 64 73 87 106 127 148 168 183 192 197 197 193 187 180 173 166 160 154 149 144 139 135 131 129 127 127 127 127 127 126 126 124 121 118 114 110 105 100 96 91 87 83 80 76 73 70 68 66 64 62 61 60 59 59 58 58 57 57 56 56 56 55 55 54 54 54 53 53 53 53 56 63 75 91 111 132 152 169 181 188 189 187 182 175 168 161 154 147 141 135 129 124 120 116 113 112 111 111 111 111 111 110 108 105 102 98 94 90 86 82 78 74 71 67 65 62 60 58 56 54 53 52 52 51 51 51 51 51 51 51 50 50 50 50 50 50 50 50 50 50 50 51 51 51 54 59 70 86 107 131 156 178 196 207 213 214 211 205 198 189 181 174 166 159 152 146 140 136 132 129 128 127 127 127 127 127 125 123 119 115 111 106 101 95 91 86 82 77 74 70 67 64 62 60 58 57 56 55 54 53 53 52 52 52 52 52 51 51 51 51 51 51 51 51 53 58 68 83 104 128 154 178 197 210 216 218 215 209 201 193 184 176 168 161 153 147 140 135 131 128 127 127 127 127 127 126 124 122 118 114 109 104 98 93 88 83 79 75 71 67 64 61 59 57 55 54 54 53 53 52 52 52 51 51 50 50 52 56 65 79 98 121 143 164 181 192 198 198 195 188 180 171 163 154 146 137 130 124 118 113 110 109 108 109 110 110 110 108 106 103 98 94 88 83 77 72 67 63 59 55 52 49 47 46 46 46 45 45 44 42 41 40 39 40 44 53 68 88 112 138 163 183 199 208 211 210 206 200 193 186 179 172 164 157 149 142 135 129 125 121 119 117 116 114 111 108 104 100 95 89 83 78 72 67 61 57 52 48 44 41 38 36 34 33 32 31 30 29 28 27 27 27 30 37 49 66 88 112 135 156 171 180 184 183 179 174 167 161 155 148 141 134 127 120 113 107 101 97 94 92 90 88 85 82 78 73 68 62 57 52 47 42 37 33 30 26 24 21 19 17 16 15 14 13 13 12 12 12 12 12 12 11 11 11 10 10 11 15 22 34 51 70 90 108 123 131 135 135 133 129 125 121 117 113 110 106 102 98 94 91 89 88 87 87 86 86 85 83 80 77 74 70 67 64 61 58 56 54 53 51 51 50 50 50 50 50 50 50 50 50 51 51 51 51 51 51 54 59 68 80 94 109 122 132 138 140 139 136 132 128 125 122 119 116 113 110 106 103 101 99 98 98 99 99 100 99 98 97 95 92 90 87 85 83 81 79 78 77 76 75 75 74 74 74 74 74 74 74 75 75 75 75 76 76 76 76 76 76 76 76 76 77 81 89 100 114 128 142 152 158 160 157 153 148 143 138 134 131 128 127 124 121 117 114 112 110 109 109 109 109 109 108 107 106 104 102 99 97 95 93 92 90 89 88 87 86 85 84 84 83 83 83 83 83 83 83 83 84 84 83 83 83 83 82 82 82 83 86 92 101 113 127 138 148 154 155 153 148 143 137 132 128 126 124 122 119 116 114 111 109 108 108 108 109 109 109 109 109 107 106 104 102 100 98 97 96 95 94 94 94 94 94 93 93 92 92 91 91 91 90 90 90 89 89 89 88 88 87 86 85 85 84 85 88 93 102 113 125 135 143 147 147 144 139 133 127 123 120 117 114 112 110 108 106 104 103 102 102 103 104 105 105 104 103 102 100 98 96 94 93 91 90 88 87 86 86 85 85 84 84 84 84 84 84 84 84 84 84 84 84 84 84 84 83 83 83 83 83 83 82 82 82 82 82 82 83 83 83 83 84 84 84 84 85 86 90 98 109 123 137 151 161 167 168 166 162 157 151 147 143 140 138 137 135 133 131 129 127 127 126 125 125 125 125 125 124 123 121 119 116 114 111 109 107 104 102 101 99 97 96 95 94 93 92 92 91 91 90 90 89 89 88 88 87 87 86 86 86 85 85 84 84 83 83 82 82 82 81 81 81 81 81 81 81 82 82 82 82 82 85 89 98 110 125 140 156 169 177 182 182 180 176 171 166 162 158 155 153 151 149 146 144 141 139 138 137 137 137 137 137 136 135 132 130 127 124 121 117 114 111 108 105 102 100 97 95 93 92 90 89 88 87 86 85 84 83 82 81 80 80 79 78 77 76 75 74 73 72 72 74 80 89 102 117 133 148 160 168 172 172 170 165 160 155 149 144 140 135 131 127 124 121 119 117 117 118 119 119 120 119 118 116 113 110 106 103 99 95 91 88 85 82 79 77 74 72 71 69 68 67 66 65 64 64 63 63 62 62 62 61 61 60 60 60 60 62 67 76 89 106 125 142 158 170 177 180 180 177 172 166 160 155 149 144 138 133 128 124 120 117 115 115 115 115 116 116 115 113 111 108 104 100 96 91 87 83 79 76 73 70 68 65 63 62 60 59 58 57 57 56 56 55 55 55 54 54 55 58 64 74 89 106 125 142 157 167 173 175 174 169 163 156 149 142 134 127 121 115 109 104 100 98 98 98 99 100 101 100 99 97 94 90 86 81 77 73 69 65 61 58 55 52 49 47 45 43 42 41 41 40 40 40 42 45 53 65 82 102 124 143 160 172 178 179 176 170 163 155 148 141 134 128 123 117 110 105 99 95 92 89 88 87 86 85 83 80 77 74 69 65 61 56 52 48 45 41 38 36 33 31 29 28 27 26 25 25 25 25 25 25 25 25 25 26 26 26 26 27 27 30 36 46 62 82 103 124 140 151 158 159 156 151 145 138 132 127 123 119 115 111 107 103 99 95 92 89 87 86 85 84 83 81 79 76 73 70 67 64 62 59 56 54 52 51 49 48 47 46 45 45 45 45 45 46 46 47 47 48 48 48 49 49 49 50 53 57 66 77 91 106 119 128 132 133 130 126 120 114 109 105 102 100 98 96 95 94 92 91 90 90 90 90 91 91 92 92 92 91 90 89 87 86 84 83 82 81 80 80 79 79 79 79 79 80 80 81 82 82 83 84 84 85 85 86 86 86 87 87 87 87 88 88 88 89 89 89 90 90 90 90 91 93 98 105 117 130 144 156 164 166 165 159 152 144 136 130 125 121 118 116 114 113 111 110 109 109 109 109 110 111 111 112 111 111 109 108 106 104 103 101 99 98 97 96 95 94 94 94 93 93 94 94 94 95 95 95 96 96 96 97 97 97 97 97 97 97 97 97 96 96 96 96 97 100 105 114 126 138 150 158 162 162 158 151 143 135 128 123 118 114 111 109 108 106 105 104 104 104 105 106 107 107 108 108 107 106 105 103 102 100 98 96 95 94 93 92 91 91 91 91 91 91 91 91 92 92 93 93 94 94 94 152 143 135 127 122 117 113 110 108 106 105 104 103 103 104 105 106 107 108 109 108 107 106 104 103 101 99 97 95 94 92 91 90 90 89 89 88 88 88 88 89 89 89 90 90 90 91 91 91 92 92 92 92 92 92 92 91 91 91 91 91 91 91 91 92 96 102 112 125 138 151 160 164 164 160 154 147 139 132 127 122 118 115 112 110 108 106 105 105 105 106 107 108 110 110 111 110 109 108 106 104 102 100 98 97 95 94 93 91 91 90 89 89 88 88 88 88 88 89 89 89 89 89 90 90 90 90 90 90 90 89 89 89 89 89 88 88 88 88 88 89 90 93 99 110 123 137 152 164 171 174 172 168 162 156 149 143 137 133 129 126 124 121 119 117 117 116 117 118 119 120 121 121 121 120 118 116 114 111 109 106 104 102 100 98 96 94 93 92 91 90 89 88 88 87 87 87 87 87 87 87 86 86 86 85 85 85 84 84 84 83 83 84 86 92 102 116 131 147 161 171 177 179 177 174 168 163 157 152 147 143 139 135 132 129 127 126 125 125 125 126 127 127 127 126 124 122 119 116 113 110 106 103 100 97 94 92 90 88 86 84 82 81 80 79 78 77 77 76 76 75 75 74 74 73 73 72 72 71 71 70 69 69 70 73 79 90 105 123 141 158 171 179 183 183 180 174 169 162 157 151 146 141 137 133 129 126 124 122 122 122 122 122 121 121 119 117 114 110 106 102 98 94 90 86 83 80 77 74 71 69 67 65 64 63 62 61 60 60 59 59 59 58 58 57 57 57 56 56 55 55 54 54 56 59 67 80 97 117 137 155 170 180 184 184 181 176 169 163 156 150 144 138 132 127 124 120 117 116 115 115 115 115 115 114 112 110 107 103 99 95 91 87 83 79 75 72 69 66 64 62 60 58 57 56 55 55 54 54 54 54 54 53 53 53 53 52 52 52 52 51 52 54 60 71 86 106 127 148 166 179 187 190 188 184 177 170 163 156 150 144 138 132 127 124 121 120 119 119 119 120 120 119 118 115 112 109 104 100 96 92 87 83 79 75 72 68 65 63 61 59 57 56 55 54 54 53 53 53 53 53 53 53 53 52 52 52 52 54 59 68 82 101 122 143 162 176 186 190 189 185 179 171 163 155 147 140 132 127 121 116 113 111 111 111 112 112 112 112 110 108 104 100 95 91 86 81 77 73 69 65 62 59 56 54 52 50 49 48 47 47 46 46 46 46 45 45 45 45 44 44 44 46 51 62 77 98 122 146 168 186 198 203 204 200 194 186 178 170 163 155 148 141 134 127 122 118 114 112 111 110 109 108 106 103 99 95 90 85 79 74 70 65 61 57 53 50 47 44 42 40 39 38 38 38 37 37 37 37 37 37 37 38 42 50 63 82 106 132 157 179 195 205 208 207 202 196 189 182 175 169 163 157 150 143 136 129 124 120 117 114 112 110 108 105 102 97 93 87 82 76 71 66 61 56 52 48 45 41 39 37 35 33 32 31 31 30 30 30 30 30 30 30 30 29 29 29 28 29 31 36 47 64 87 114 142 167 187 200 206 207 203 197 190 183 176 170 164 157 151 143 136 129 124 120 116 113 111 109 107 104 100 95 91 85 80 74 69 63 59 54 51 48 45 42 40 38 36 35 34 33 32 32 32 32 32 32 32 32 31 31 30 29 29 30 33 41 54 73 96 121 144 164 179 186 189 187 182 176 170 164 158 153 147 141 134 128 123 117 113 110 108 107 105 104 102 99 95 91 86 82 77 72 68 64 60 57 54 51 49 47 45 43 42 42 41 41 40 40 40 40 41 41 40 40 40 40 40 40 39 39 40 43 51 63 81 103 127 150 170 185 193 196 194 190 185 179 173 167 162 157 151 145 139 133 128 126 123 122 120 119 118 116 113 110 106 101 97 92 87 83 79 75 71 68 66 63 61 59 58 57 56 55 54 54 54 54 54 54 53 53 53 53 52 52 51 51 50 50 51 54 61 73 90 112 134 156 174 186 192 193 191 185 179 172 166 160 154 147 141 135 129 125 121 118 116 115 113 112 109 106 103 98 94 89 84 79 74 69 65 61 58 55 52 49 47 45 43 41 40 39 38 37 36 36 35 35 34 34 33 33 32 31 31 31 31 34 40 51 65 83 101 117 129 137 139 138 135 130 125 121 116 113 109 106 103 99 95 92 90 89 88 88 88 88 88 87 86 84 81 78 76 73 70 68 66 64 63 62 61 60 59 59 58 58 58 58 59 59 60 60 61 62 62 63 63 63 64 64 64 64 65 67 71 79 91 106 121 134 144 150 151 149 146 141 136 131 127 125 123 121 118 116 114 112 110 110 109 110 110 111 111 111 110 108 106 104 101 99 97 95 93 91 90 89 88 88 88 88 88 88 88 89 89 89 89 90 90 89 89 89 88 87 87 86 86 86 86 87 90 96 106 118 130 142 151 156 156 153 148 142 135 130 127 123 121 118 116 114 112 110 109 109 109 110 110 111 111 110 109 107 105 103 101 99 97 95 94 92 91 90 90 89 88 88 88 88 88 88 88 88 89 89 89 89 89 89 89 89 89 89 88 88 89 92 97 105 116 128 139 148 152 152 149 143 137 131 126 122 119 116 114 112 110 108 106 104 104 104 104 105 105 105 105 104 103 101 99 97 96 94 93 92 91 90 89 89 89 88 88 88 88 88 88 88 88 88 89 89 89 89 89 89 89 89 89 88 88 88 88 90 93 100 110 121 132 142 148 150 148 143 136 130 124 119 115 112 110 108 107 105 103 102 101 101 101 102 103 103 103 103 103 101 100 98 97 95 93 92 91 90 89 89 88 88 88 88 88 88 88 88 89 89 89 90 90 90 91 91 91 90 90 90 90 89 89 89 91 94 100 110 121 131 140 146 148 146 142 136 130 125 120 116 113 111 109 108 106 105 104 103 104 104 105 106 106 107 107 106 105 103 102 100 98 97 96 94 93 93 92 91 91 90 90 90 90 90 90 90 90 90 90 91 91 90 90 90 90 89 89 89 89 89 92 96 104 114 124 133 140 144 144 141 136 131 126 121 117 113 111 109 107 105 104 103 103 103 104 105 106 107 108 108 108 107 105 103 102 100 98 97 95 94 93 92 92 91 91 90 90 90 90 90 90 90 90 90 90 91 91 91 90 90 90 90 90 89 89 90 92 96 104 115 127 138 148 155 158 157 153 148 143 138 133 130 127 126 124 122 120 119 117 116 116 116 117 118 118 118 118 117 115 113 111 109 107 105 103 101 99 98 96 95 94 93 92 91 91 90 90 90 89 89 89 89 89 89 88 88 87 87 87 86 85 85 86 90 96 106 119 132 146 156 163 166 166 163 158 153 148 143 140 137 134 132 129 127 126 124 123 123 123 123 123 124 123 122 121 119 116 114 111 108 105 103 100 98 96 94 92 90 89 88 87 86 85 84 84 83 83 83 82 82 82 81 81 80 79 79 78 78 80 84 92 103 117 132 146 158 166 170 170 168 163 158 152 147 142 138 134 130 127 124 122 120 119 119 119 120 120 120 120 118 116 113 110 106 103 99 96 92 89 86 84 81 80 78 77 76 75 74 73 72 72 71 71 70 70 70 69 68 68 67 66 65 65 67 72 80 94 110 128 145 160 170 175 177 175 170 165 160 154 149 144 140 135 131 127 124 121 119 117 117 117 117 116 115 113 110 107 103 99 95 91 87 83 79 76 73 70 67 65 63 61 60 59 58 57 57 56 56 56 56 55 55 55 54 53 53 52 52 53 57 65 78 95 115 134 152 165 174 177 177 173 167 161 155 149 143 138 133 128 124 119 115 112 110 108 108 107 106 106 104 102 100 97 93 90 85 81 77 73 69 66 62 59 57 54 52 50 48 47 46 45 44 43 43 42 41 41 41 40 40 39 39 38 39 41 47 57 71 89 108 126 139 149 153 153 150 145 139 133 127 123 118 114 109 105 101 98 96 94 94 93 93 93 93 92 90 88 85 82 79 76 73 69 67 64 62 59 58 56 55 54 53 52 52 52 52 52 52 53 53 53 54 54 54 54 54 55 55 56 58 62 70 82 98 115 130 143 152 157 157 154 149 143 137 131 127 122 118 114 110 107 105 103 103 103 104 105 106 106 106 105 102 100 97 94 91 89 86 84 82 80 78 77 76 75 74 74 73 73 73 73 74 75 76 77 77 77 76 76 75 74 72 72 72 74 80 91 105 121 137 152 164 171 173 172 168 163 158 152 148 143 140 136 132 128 126 123 121 120 119 119 120 120 119 118 116 113 110 107 103 99 96 93 90 87 85 83 81 79 78 77 75 74 74 73 73 72 72 72 72 72 72 71 71 70 70 70 70 73 79 89 103 120 136 153 165 174 177 176 172 166 160 153 148 142 138 134 129 126 122 119 116 114 112 111 111 110 108 106 104 101 97 93 89 85 82 78 75 72 69 66 64 62 60 59 57 56 56 55 55 55 55 55 55 55 56 56 55 55 56 58 63 72 83 97 110 122 129 132 132 129 125 120 114 110 106 103 100 98 95 94 92 92 93 95 98 100 102 103 103 102 100 98 95 92 89 86 83 81 78 76 74 73 72 70 70 69 68 68 68 67 67 67 66 66 66 67 69 73 80 90 101 112 121 127 128 127 124 119 114 110 106 103 100 97 95 92 90 89 88 87 88 88 89 89 89 88 87 85 83 81 79 77 75 74 72 72 71 71 70 70 70 70 71 71 72 72 73 74 75 75 76 76 76 76 77 77 79 84 91 102 114 126 135 142 144 143 139 134 129 125 121 118 116 114 112 110 108 106 105 104 104 104 105 105 106 105 105 103 102 100 98 96 95 93 92 91 91 90 90 89 89 89 89 89 89 89 89 89 89 89 90 90 90 90 89 89 89 88 88 88 88 88 88 90 95 103 114 127 138 147 153 154 151 146 140 134 129 126 123 121 119 117 114 112 111 109 108 108 108 109 109 109 109 108 106 105 103 101 99 97 96 94 93 92 92 91 91 91 90 90 90 89 89 89 89 89 89 89 89 88 88 87 87 86 86 85 86 88 92 99 109 119 128 135 139 139 136 131 127 122 117 113 111 108 106 105 103 101 100 99 99 100 101 102 103 103 102 101 100 98 96 94 92 91 89 88 88 87 86 86 86 85 85 85 85 85 85 86 86 86 86 86 86 86 86 86 86 85 85 85 85 86 88 94 102 113 124 134 141 145 145 143 138 133 127 124 121 118 117 115 113 112 110 108 107 106 106 106 107 107 107 107 106 105 104 102 100 98 97 95 94 92 91 90 89 89 88 88 87 87 87 87 87 87 87 87 87 87 87 87 86 86 86 85 85 85 84 85 86 90 97 107 119 131 142 150 154 154 152 148 143 139 135 133 131 129 127 127 125 123 122 121 120 120 120 120 121 121 120 119 117 116 113 111 109 106 104 102 100 98 97 96 94 93 93 92 91 91 90 90 90 89 89 89 88 88 87 87 86 86 85 84 84 84 85 89 96 106 118 131 144 154 160 163 162 159 154 149 145 140 137 133 130 127 126 123 