121 120 119 119 120 120 120 120 119 118 115 113 110 107 104 101 98 96 93 91 89 87 85 83 82 80 79 78 77 77 76 76 75 75 74 74 73 73 72 71 70 70 69 69 70 73 79 89 103 118 133 146 155 160 162 160 155 150 145 140 135 132 128 126 123 120 116 113 111 109 108 108 107 107 106 105 103 101 99 96 93 90 87 84 82 79 77 75 73 71 70 69 68 67 66 66 65 65 64 64 64 64 63 63 62 62 62 61 61 60 61 62 67 75 87 102 118 132 144 152 155 155 152 147 142 136 131 127 124 121 117 114 111 108 106 105 104 104 104 105 105 104 103 101 99 97 94 91 89 86 84 81 79 77 75 74 72 71 70 70 69 69 70 70 71 72 73 73 73 73 73 73 72 72 71 70 70 70 72 78 87 100 115 130 143 154 160 161 160 156 151 145 139 134 129 126 122 118 115 112 110 110 110 112 114 116 117 118 117 116 114 112 108 105 102 98 95 91 88 85 82 79 77 75 73 71 69 68 67 66 66 65 65 65 65 65 64 64 64 64 63 63 63 66 71 80 93 109 126 142 156 165 170 171 169 164 159 153 148 142 138 133 129 126 122 119 116 115 114 113 114 114 114 113 112 110 108 105 102 98 95 91 88 85 82 80 77 75 73 71 70 69 68 67 66 66 66 65 65 65 65 65 64 64 63 62 61 61 61 64 71 83 99 118 137 155 169 178 182 183 180 174 168 162 156 150 145 140 135 130 127 123 121 119 118 118 118 118 118 117 116 113 111 107 103 100 96 92 88 85 81 78 75 73 71 68 67 65 64 63 62 61 61 61 60 60 60 60 60 60 60 60 59 60 62 67 76 91 110 130 151 170 184 192 196 195 191 184 177 169 162 155 149 143 137 132 127 125 122 121 121 121 121 122 121 120 118 115 112 108 104 100 96 92 88 85 81 78 75 72 70 68 66 64 62 61 60 59 58 58 57 57 56 56 55 55 54 54 55 59 68 82 101 123 145 166 182 193 197 197 193 186 178 169 161 153 145 138 131 126 121 117 115 114 114 115 115 116 116 114 112 109 105 101 97 92 87 83 78 75 71 68 65 63 60 58 56 54 53 52 51 51 50 50 50 49 48 47 45 44 43 43 45 50 61 79 101 126 151 174 192 203 208 208 204 198 190 182 174 167 160 154 147 141 135 130 127 125 124 123 123 122 121 119 116 111 106 101 95 89 83 77 71 65 60 56 52 49 47 44 43 41 40 39 39 38 38 38 38 40 45 54 69 88 112 136 159 178 191 197 198 194 188 180 172 164 156 149 141 134 127 121 116 112 110 109 109 109 109 108 106 103 99 95 90 84 79 74 69 64 141 133 126 118 111 105 101 99 97 97 97 97 96 94 90 86 81 76 70 65 59 55 50 46 43 40 37 35 33 32 30 29 28 27 26 25 25 27 34 45 63 85 110 133 153 168 176 179 177 172 165 158 152 145 138 131 125 117 109 103 97 93 90 88 87 86 84 82 79 75 71 67 62 57 53 49 45 41 38 35 32 30 28 26 25 24 23 22 22 21 20 20 20 20 23 29 40 56 76 99 121 138 151 158 161 160 156 152 148 143 139 135 129 124 118 112 106 101 98 95 94 92 91 89 87 84 81 77 74 70 66 63 59 57 54 52 49 47 46 44 43 42 41 40 39 39 39 39 39 40 40 41 41 42 42 42 42 42 42 45 50 60 75 94 115 135 153 167 175 178 178 175 171 168 164 161 158 155 151 146 142 137 132 129 127 126 125 124 123 121 118 115 112 108 104 101 97 94 91 88 85 82 80 78 75 74 72 70 69 68 67 66 66 66 65 65 64 63 62 61 60 60 60 61 65 73 85 101 118 134 148 157 162 163 161 157 153 149 145 142 138 134 129 125 120 115 112 109 108 107 107 107 106 105 103 100 97 94 91 88 85 82 79 77 75 72 70 69 67 66 65 64 63 62 62 61 61 61 60 61 61 61 62 62 62 62 62 62 62 62 64 69 78 92 109 128 146 162 173 179 181 179 176 172 167 163 160 157 153 149 145 140 135 131 128 126 124 123 123 122 120 118 116 113 110 106 103 99 96 92 89 87 84 82 79 77 75 74 72 71 70 70 69 69 68 68 68 67 67 67 67 66 66 65 64 64 65 67 74 84 100 119 139 158 175 186 193 195 193 190 186 181 177 173 170 166 161 156 150 145 140 135 132 130 128 127 126 124 122 119 116 112 108 104 100 95 91 87 84 80 77 74 72 69 67 65 64 62 61 60 59 58 57 57 56 55 55 54 53 52 51 51 50 49 49 48 48 48 48 48 48 49 49 49 50 50 51 52 56 63 76 95 118 142 166 186 201 211 215 214 211 206 200 195 190 185 180 175 170 164 158 153 148 144 141 139 137 135 133 131 128 125 121 117 112 107 101 96 91 87 82 78 75 72 69 66 63 61 59 57 55 54 52 51 50 49 48 48 47 46 45 44 43 43 42 42 41 41 41 41 41 41 41 42 42 43 43 44 45 48 55 66 84 106 131 157 181 200 212 220 222 219 215 209 202 195 189 182 176 169 163 156 150 144 139 135 132 130 128 127 125 122 119 115 111 106 101 95 90 84 79 75 70 66 63 60 57 55 53 51 49 48 47 45 44 44 43 42 41 41 41 40 40 40 40 39 39 39 39 39 39 40 40 40 41 41 41 42 43 44 45 47 51 58 70 88 112 138 165 190 210 223 230 232 229 223 216 207 198 189 181 173 165 157 150 143 137 133 129 127 127 126 126 125 123 120 117 113 109 104 99 94 89 84 79 75 70 66 63 59 56 54 52 50 48 47 46 45 45 44 44 44 44 44 44 44 44 44 45 45 45 45 45 47 50 57 70 89 113 140 168 193 212 225 231 232 229 222 214 205 196 187 178 170 161 153 145 138 132 127 123 121 119 118 117 116 114 112 109 106 101 96 91 86 80 75 70 65 61 57 53 49 46 43 41 39 37 36 35 35 34 34 34 34 34 34 34 35 35 35 35 36 36 37 37 38 38 39 39 40 40 41 42 43 44 45 47 51 59 72 93 121 151 184 214 238 254 254 254 254 254 247 237 226 215 205 194 185 175 166 158 151 145 140 137 135 133 132 131 129 127 125 120 116 110 105 99 93 87 82 77 72 67 63 59 55 52 49 47 44 43 41 40 39 39 38 38 38 39 39 39 40 41 42 42 43 44 45 47 51 60 76 98 126 156 186 212 231 244 250 249 244 236 226 215 203 192 181 170 160 150 141 133 127 123 120 118 118 118 118 117 116 114 111 107 102 97 92 86 80 75 69 64 58 54 49 45 42 39 36 34 32 31 30 29 29 29 29 29 30 30 31 31 32 33 33 34 37 42 54 72 97 127 159 191 217 237 249 253 252 246 238 227 215 204 192 181 170 160 150 141 133 127 123 120 118 117 117 116 115 113 110 106 102 96 90 84 78 73 67 61 56 51 47 43 39 36 33 31 29 28 27 27 27 27 27 27 28 28 29 30 30 31 32 34 38 47 63 86 116 148 181 211 234 249 254 254 254 246 236 225 214 202 191 180 169 159 149 141 134 129 126 123 122 121 119 118 115 111 107 102 96 89 83 76 70 64 59 54 49 44 40 37 33 30 28 26 25 24 24 23 23 23 23 23 23 24 24 25 25 25 26 28 34 46 65 92 124 157 190 217 237 249 254 252 245 236 225 214 202 191 179 168 157 147 138 130 124 119 116 114 112 110 109 106 103 98 93 87 81 75 68 62 56 50 45 40 35 31 28 25 22 20 19 17 17 16 16 16 17 17 18 18 19 20 20 21 21 21 22 24 30 41 59 85 117 151 184 212 233 245 250 249 243 234 223 211 200 188 177 166 156 146 138 131 126 122 120 119 118 118 117 115 112 108 104 98 92 85 79 72 66 60 54 49 44 40 37 34 31 29 27 26 25 24 24 24 24 24 24 25 25 25 25 24 24 24 24 26 32 44 63 89 121 155 187 215 235 246 250 248 242 232 221 210 198 187 177 166 156 146 137 129 124 119 116 114 113 111 109 107 103 99 93 88 82 75 69 64 58 53 48 44 40 37 34 31 29 27 25 24 23 23 23 22 22 22 22 22 22 21 21 21 21 21 21 21 21 21 22 23 24 25 26 27 28 29 30 32 36 44 59 83 114 151 190 227 254 254 254 254 254 254 254 254 245 233 221 209 198 186 176 165 156 149 143 139 135 133 131 128 126 122 117 111 104 97 90 83 76 69 63 58 52 48 43 40 36 33 31 29 27 26 25 24 24 23 23 23 24 24 24 24 24 24 24 25 25 25 25 26 27 32 41 59 84 117 154 192 225 251 254 254 254 254 254 247 233 220 207 195 183 172 161 152 143 136 131 128 127 127 126 125 124 121 117 112 106 100 94 87 81 74 69 64 59 55 51 47 44 41 39 38 37 37 37 38 38 39 40 40 40 40 39 38 37 36 36 36 35 35 35 36 36 37 38 39 39 40 39 39 37 36 34 34 36 43 56 79 111 147 187 225 254 254 254 254 254 254 254 250 235 220 206 193 180 167 155 144 135 128 124 121 119 118 117 116 114 111 106 101 95 89 82 75 69 63 56 51 45 40 36 32 29 27 25 23 22 21 21 20 20 20 20 20 20 21 21 21 22 21 21 21 22 23 28 39 58 86 120 158 196 230 254 254 254 254 254 254 248 234 220 206 193 181 168 156 144 133 125 118 114 111 109 108 106 105 102 98 94 88 82 75 68 61 54 47 41 35 30 25 21 17 14 12 10 9 9 9 9 10 12 14 15 17 18 20 21 24 31 42 61 88 122 158 196 228 253 254 254 254 254 254 247 233 218 204 190 176 163 151 140 131 125 120 117 116 116 116 116 115 113 109 104 98 92 84 77 70 63 56 50 44 39 34 30 27 25 23 22 21 20 20 20 20 21 24 32 46 69 99 133 170 203 230 248 254 254 251 240 227 212 197 183 170 156 143 131 121 111 103 98 95 93 93 94 94 93 92 89 84 79 73 66 60 53 47 41 35 30 26 22 18 16 13 12 11 10 10 9 9 9 10 12 18 30 51 80 117 155 194 226 250 254 254 254 254 246 232 219 205 192 180 167 155 142 130 121 112 105 100 96 94 93 91 89 86 82 77 71 65 58 52 45 39 33 27 22 18 13 10 7 4 2 1 0 0 0 0 1 1 2 3 4 5 6 6 7 7 8 9 14 25 45 74 112 155 198 237 254 254 254 254 254 254 254 242 228 214 201 189 177 165 153 142 133 126 120 116 113 111 109 106 103 98 92 86 79 72 65 58 51 44 38 32 27 22 18 15 12 10 9 8 7 7 7 7 8 9 10 11 11 12 12 12 12 13 15 21 33 55 87 126 168 210 246 254 254 254 254 254 254 250 235 220 207 194 181 168 155 144 133 126 120 115 113 111 109 108 105 101 97 91 84 77 70 63 56 49 43 37 31 26 22 18 15 13 12 11 10 10 11 12 13 14 15 16 17 17 18 18 18 18 19 22 31 48 74 109 148 189 225 253 254 254 254 254 254 240 224 208 193 178 164 151 138 127 119 113 109 107 106 106 107 106 105 102 97 92 85 78 71 64 56 50 43 38 33 29 26 24 22 21 19 18 17 17 16 16 16 16 16 17 17 18 18 19 19 19 19 19 22 29 44 69 103 145 190 232 254 254 254 254 254 254 254 254 247 231 216 201 187 172 158 145 134 126 119 114 111 109 107 105 102 98 93 87 80 73 65 58 50 43 37 30 25 20 15 12 8 6 4 2 1 1 1 1 2 3 4 5 6 7 8 9 10 10 10 10 11 13 19 32 55 90 132 180 227 254 254 254 254 254 254 254 254 254 243 227 211 196 181 166 151 138 127 118 111 106 102 100 98 95 91 86 81 74 67 59 52 44 37 30 24 18 13 9 5 3 0 0 0 0 0 0 0 0 1 2 4 5 7 8 10 11 12 13 14 15 15 17 22 32 52 81 121 165 211 252 254 254 254 254 254 254 254 254 239 222 205 189 174 160 148 137 128 123 119 117 117 117 117 116 114 110 105 98 91 84 76 69 63 57 52 46 42 37 33 29 26 23 21 19 17 16 15 14 13 13 12 13 13 14 16 17 18 20 25 35 53 81 119 162 209 252 254 254 254 254 254 254 254 254 254 244 226 210 193 178 163 150 139 131 126 121 118 116 113 110 106 101 95 88 80 71 63 55 47 40 33 27 22 18 14 10 7 5 3 2 1 0 1 1 2 2 3 4 4 5 5 4 4 5 10 20 40 70 109 152 196 234 254 254 254 254 254 254 244 227 211 195 181 167 154 142 130 121 112 106 101 98 97 96 95 93 90 86 80 73 66 58 51 43 35 29 22 17 12 8 4 1 0 0 0 0 0 0 0 0 0 0 0 1 1 1 1 1 3 6 16 33 57 88 123 155 183 203 215 218 215 206 195 181 168 156 144 133 124 115 106 98 91 86 83 81 81 81 81 80 79 76 73 69 64 59 54 48 43 39 35 31 28 25 23 22 20 20 19 19 20 20 21 21 21 22 23 26 33 45 62 83 106 127 145 157 163 164 160 154 145 137 128 122 115 108 102 96 91 88 85 85 85 87 89 90 91 91 89 87 84 81 77 73 70 67 64 62 60 57 55 54 52 51 50 49 48 48 47 47 47 48 53 63 77 96 118 137 154 165 171 171 168 162 156 149 143 138 134 130 127 123 119 116 113 111 111 111 112 113 114 114 113 112 110 107 104 101 98 95 93 90 88 86 85 83 82 81 80 80 80 79 79 79 79 80 82 88 98 112 128 145 161 172 178 179 176 170 164 157 151 146 142 138 134 130 127 123 120 117 115 115 115 115 115 115 114 113 111 108 105 102 99 96 94 91 89 87 86 84 83 82 81 80 80 80 80 80 79 79 79 79 78 78 77 77 78 82 91 103 118 133 146 156 160 160 156 151 144 138 133 129 126 123 119 116 112 109 107 106 106 106 107 107 108 107 105 103 101 98 95 92 90 88 86 84 83 82 80 79 79 78 77 76 75 74 72 71 70 69 68 68 68 71 77 86 98 112 125 134 140 141 139 135 130 126 122 118 115 112 109 106 103 100 97 96 95 96 96 98 98 99 99 98 96 95 93 90 88 86 85 83 82 80 79 79 78 77 77 76 76 76 76 76 76 76 76 77 77 77 77 77 76 76 76 75 75 77 81 89 101 115 129 142 151 154 154 149 144 138 133 128 126 123 121 118 115 112 109 106 104 103 103 103 104 104 104 103 102 101 99 97 95 93 91 90 88 87 86 86 85 84 84 84 84 84 84 84 85 85 85 85 85 85 85 84 83 82 82 81 82 84 90 99 110 124 136 146 151 152 149 144 138 131 127 123 119 117 114 112 109 106 104 102 101 101 102 103 104 105 105 104 103 102 100 98 96 94 93 91 90 89 87 86 86 85 85 84 84 84 84 85 85 85 85 85 85 85 84 84 83 82 82 82 84 88 96 107 120 131 142 148 150 148 143 137 131 127 123 120 117 115 112 110 107 105 103 103 103 103 104 105 106 106 106 105 103 101 99 97 95 94 93 91 91 90 89 89 88 88 88 87 87 87 87 86 86 86 86 86 86 85 85 85 84 84 83 83 83 83 86 92 102 115 129 142 153 159 161 159 154 149 143 139 135 132 130 128 127 125 122 120 117 116 115 115 115 116 116 116 116 115 113 111 108 106 104 102 100 98 96 95 94 92 91 91 90 89 89 88 88 87 87 86 86 85 85 84 84 83 83 82 82 81 81 81 81 81 81 81 81 81 81 82 82 83 83 83 84 86 91 100 112 127 144 160 172 180 183 182 178 173 167 162 157 154 151 149 146 144 141 138 136 134 133 133 133 133 134 133 132 130 128 126 123 120 117 113 110 107 104 102 99 97 95 93 92 91 89 88 87 86 85 84 83 82 81 80 79 78 76 75 74 73 73 72 71 70 70 69 69 68 68 70 74 81 94 110 127 146 161 173 180 183 182 178 172 167 161 156 152 148 144 140 136 132 129 127 125 123 122 122 121 121 119 117 115 111 108 104 100 96 92 89 85 82 80 77 75 73 72 70 69 67 66 65 65 64 63 63 62 62 61 61 60 59 59 59 58 58 58 57 57 57 57 57 57 57 57 57 58 62 68 80 96 116 137 158 175 187 194 196 193 188 182 175 168 161 156 151 147 143 139 136 133 130 128 127 126 125 124 49 49 48 48 48 47 47 47 47 47 48 51 58 69 85 105 126 145 161 173 179 181 178 173 166 159 152 145 139 133 128 124 119 115 112 109 108 108 108 108 109 108 108 106 104 101 98 95 91 87 84 81 78 75 72 70 67 65 64 62 61 59 58 58 57 57 56 56 56 56 55 55 55 55 55 55 55 55 56 58 63 73 88 108 128 149 168 181 190 193 192 188 182 175 167 160 154 148 142 136 131 127 122 119 116 115 114 113 113 113 113 111 109 107 103 100 96 92 88 85 81 78 75 72 69 66 63 60 59 57 56 55 54 53 52 52 52 52 53 54 55 55 56 56 57 57 58 59 62 69 82 101 124 148 171 191 205 213 217 215 211 205 198 190 183 176 169 163 156 150 145 140 136 134 132 131 131 130 129 128 126 123 119 114 109 104 99 94 89 85 80 76 72 68 65 62 60 57 55 53 52 51 50 50 50 50 49 49 49 49 49 49 49 49 49 50 53 60 72 89 111 135 159 180 196 205 208 207 202 195 187 179 171 164 156 149 142 135 129 125 121 118 116 116 115 115 114 113 111 108 104 100 95 90 85 80 75 70 66 62 58 54 51 48 45 43 41 39 38 37 36 35 35 35 36 36 37 38 38 39 40 41 45 53 66 86 110 136 163 186 204 215 219 218 213 205 196 187 177 168 158 150 141 133 127 122 117 114 112 112 112 113 113 112 111 108 105 101 97 92 87 81 76 72 67 63 59 55 52 49 47 45 43 42 41 40 39 39 39 38 38 39 43 50 64 83 108 135 163 188 206 218 223 222 216 208 198 188 178 169 159 150 140 132 125 118 113 109 107 105 105 104 103 102 100 96 92 88 83 77 72 66 61 56 52 47 44 40 37 34 32 30 29 28 27 27 26 27 27 27 28 31 37 47 64 87 115 144 171 193 209 217 219 215 207 197 187 176 166 155 145 135 127 118 111 104 100 97 95 94 93 93 92 90 87 83 79 74 69 64 59 54 49 45 40 37 33 30 28 25 24 22 21 20 20 20 20 20 21 21 22 22 23 23 23 25 28 36 50 71 98 128 159 186 207 221 227 227 221 213 203 192 181 171 161 151 142 134 127 121 116 112 110 109 109 108 107 106 103 99 95 90 85 80 74 69 64 59 55 51 48 45 42 39 37 36 35 34 33 33 33 34 34 34 35 35 35 35 36 38 45 57 77 102 129 158 183 202 214 219 218 212 203 192 181 170 160 150 141 132 124 117 111 107 104 104 104 104 105 104 103 101 98 94 89 84 79 74 69 64 59 55 51 47 44 41 38 36 35 34 33 33 33 34 34 35 36 36 37 37 38 38 40 44 54 69 92 120 150 180 205 223 234 237 235 228 218 207 196 185 175 165 156 147 139 131 127 122 119 118 117 116 115 114 111 108 103 98 93 87 80 74 68 63 58 53 49 46 43 40 38 36 35 34 34 34 35 35 35 36 36 36 36 36 36 37 39 46 58 77 102 131 161 189 211 226 232 233 228 219 209 198 187 176 166 156 147 137 129 123 117 112 109 107 106 104 103 100 97 93 89 83 78 72 66 61 56 51 46 42 38 35 31 29 27 25 24 23 23 22 22 22 22 22 22 22 22 23 26 34 46 64 85 108 128 145 156 161 161 157 150 142 133 126 119 111 105 98 92 87 82 79 78 77 77 77 77 77 75 73 70 67 64 60 56 53 50 47 44 42 40 38 37 35 34 34 33 33 33 33 33 34 34 34 34 35 35 36 39 44 53 67 83 101 118 130 138 142 141 138 133 127 123 118 114 111 107 104 101 98 95 93 92 92 92 93 93 94 94 93 92 90 88 85 83 81 79 77 75 74 73 72 71 71 71 71 71 71 71 71 72 72 73 73 74 74 75 75 76 76 