105.0	104.0	102.0	100.0	98.0	94.0	90.0	87.0	84.0	83.0	83.0	85.0	87.0	91.0	96.0	102.0	110.0	119.0	127.0	135.0	141.0	145.0	146.0	146.0	143.0	139.0	134.0	129.0	125.0	120.0	116.0	112.0	108.0	105.0	103.0	101.0	100.0	100.0	100.0	100.0	100.0	101.0	101.0	100.0	99.0	98.0	96.0	95.0	95.0	95.0	95.0	95.0	95.0	94.0	94.0	93.0	91.0	89.0	87.0	86.0	88.0	92.0	97.0	104.0	110.0	114.0	116.0	115.0	112.0	108.0	103.0	97.0	91.0	85.0	80.0	76.0	73.0	72.0	73.0	75.0	78.0	81.0	85.0	89.0	92.0	96.0	100.0	103.0	106.0	107.0	107.0	105.0	102.0	99.0	96.0	92.0	88.0	83.0	79.0	75.0	72.0	70.0	70.0	71.0	74.0	80.0	88.0	99.0	110.0	122.0	131.0	139.0	144.0	147.0	148.0	148.0	147.0	145.0	143.0	141.0	138.0	135.0	132.0	128.0	126.0	123.0	120.0	117.0	114.0	112.0	109.0	107.0	105.0	103.0	100.0	98.0	96.0	94.0	93.0	91.0	89.0	88.0	87.0	85.0	85.0	85.0	86.0	90.0	95.0	103.0	112.0	122.0	129.0	135.0	139.0	140.0	140.0	139.0	136.0	132.0	128.0	123.0	117.0	111.0	105.0	100.0	95.0	92.0	90.0	88.0	87.0	86.0	85.0	85.0	84.0	83.0	81.0	80.0	79.0	78.0	103.0	102.0	102.0	102.0	102.0	102.0	102.0	101.0	100.0	99.0	97.0	96.0	94.0	92.0	90.0	89.0	87.0	86.0	84.0	84.0	83.0	82.0	82.0	83.0	86.0	91.0	98.0	108.0	117.0	125.0	129.0	132.0	131.0	129.0	126.0	122.0	118.0	114.0	110.0	106.0	101.0	96.0	91.0	86.0	83.0	81.0	81.0	82.0	84.0	86.0	87.0	87.0	86.0	84.0	83.0	82.0	81.0	80.0	78.0	76.0	74.0	72.0	69.0	68.0	66.0	66.0	67.0	69.0	72.0	77.0	84.0	92.0	100.0	109.0	116.0	121.0	123.0	123.0	121.0	118.0	115.0	112.0	109.0	106.0	103.0	99.0	95.0	91.0	88.0	84.0	82.0	80.0	79.0	79.0	80.0	81.0	83.0	83.0	84.0	84.0	84.0	82.0	81.0	79.0	76.0	74.0	73.0	72.0	72.0	73.0	73.0	74.0	74.0	74.0	74.0	75.0	77.0	81.0	85.0	91.0	96.0	101.0	104.0	105.0	104.0	103.0	101.0	100.0	98.0	96.0	94.0	92.0	90.0	88.0	86.0	84.0	83.0	82.0	81.0	81.0	81.0	81.0	81.0	80.0	79.0	79.0	78.0	77.0	76.0	76.0	75.0	75.0	75.0	75.0	76.0	77.0	79.0	80.0	80.0	81.0	82.0	83.0	86.0	90.0	96.0	101.0	106.0	109.0	111.0	110.0	108.0	105.0	102.0	98.0	95.0	92.0	89.0	86.0	83.0	81.0	79.0	77.0	76.0	76.0	77.0	78.0	79.0	81.0	84.0	86.0	89.0	90.0	90.0	89.0	88.0	86.0	85.0	83.0	83.0	83.0	83.0	85.0	86.0	87.0	88.0	89.0	90.0	91.0	94.0	98.0	103.0	109.0	113.0	116.0	117.0	117.0	115.0	112.0	109.0	106.0	104.0	101.0	99.0	96.0	94.0	93.0	92.0	91.0	91.0	91.0	91.0	92.0	93.0	95.0	96.0	97.0	98.0	98.0	98.0	97.0	95.0	94.0	93.0	93.0	94.0	95.0	96.0	97.0	97.0	97.0	98.0	99.0	102.0	106.0	111.0	115.0	118.0	119.0	118.0	115.0	112.0	109.0	106.0	104.0	103.0	102.0	101.0	100.0	100.0	99.0	98.0	96.0	93.0	90.0	87.0	85.0	84.0	84.0	84.0	84.0	85.0	85.0	86.0	87.0	89.0	91.0	93.0	95.0	96.0	97.0	97.0	97.0	97.0	98.0	98.0	100.0	102.0	105.0	109.0	113.0	116.0	118.0	118.0	116.0	114.0	112.0	110.0	108.0	107.0	105.0	103.0	101.0	98.0	96.0	94.0	93.0	92.0	93.0	93.0	95.0	96.0	98.0	100.0	101.0	102.0	101.0	101.0	101.0	100.0	100.0	99.0	99.0	98.0	97.0	95.0	93.0	92.0	92.0	93.0	96.0	101.0	107.0	113.0	118.0	122.0	124.0	124.0	123.0	122.0	120.0	118.0	116.0	114.0	112.0	110.0	108.0	106.0	105.0	104.0	103.0	102.0	100.0	98.0	97.0	96.0	96.0	96.0	98.0	100.0	101.0	101.0	101.0	100.0	99.0	97.0	95.0	93.0	92.0	92.0	93.0	96.0	100.0	105.0	112.0	118.0	123.0	127.0	127.0	127.0	125.0	122.0	118.0	115.0	111.0	108.0	106.0	104.0	102.0	100.0	99.0	98.0	98.0	98.0	98.0	98.0	98.0	98.0	98.0	98.0	97.0	97.0	97.0	98.0	98.0	98.0	98.0	98.0	98.0	97.0	96.0	94.0	93.0	92.0	92.0	94.0	97.0	103.0	110.0	117.0	123.0	127.0	127.0	126.0	123.0	119.0	116.0	112.0	109.0	108.0	106.0	105.0	105.0	104.0	103.0	102.0	101.0	100.0	100.0	99.0	99.0	99.0	99.0	99.0	98.0	97.0	96.0	95.0	94.0	94.0	93.0	93.0	92.0	92.0	92.0	93.0	93.0	95.0	97.0	100.0	105.0	109.0	114.0	118.0	120.0	120.0	119.0	117.0	114.0	111.0	107.0	105.0	103.0	101.0	101.0	100.0	100.0	99.0	98.0	98.0	97.0	97.0	97.0	98.0	98.0	99.0	99.0	99.0	99.0	98.0	97.0	95.0	94.0	92.0	91.0	89.0	88.0	86.0	85.0	84.0	84.0	85.0	85.0	87.0	91.0	96.0	103.0	110.0	117.0	122.0	124.0	125.0	123.0	121.0	117.0	113.0	108.0	104.0	100.0	97.0	96.0	96.0	96.0	97.0	98.0	99.0	100.0	101.0	102.0	102.0	103.0	103.0	104.0	105.0	106.0	106.0	105.0	104.0	102.0	99.0	97.0	95.0	93.0	91.0	90.0	89.0	89.0	90.0	92.0	96.0	102.0	108.0	115.0	119.0	122.0	122.0	120.0	118.0	114.0	111.0	108.0	105.0	102.0	100.0	98.0	97.0	97.0	98.0	100.0	102.0	104.0	105.0	106.0	106.0	105.0	104.0	102.0	100.0	99.0	98.0	97.0	96.0	95.0	95.0	94.0	93.0	93.0	92.0	91.0	91.0	90.0	90.0	92.0	95.0	101.0	108.0	115.0	122.0	127.0	128.0	128.0	127.0	125.0	123.0	121.0	119.0	117.0	115.0	112.0	109.0	107.0	104.0	102.0	101.0	100.0	99.0	98.0	96.0	94.0	93.0	91.0	90.0	90.0	90.0	90.0	91.0	92.0	93.0	93.0	91.0	89.0	87.0	86.0	85.0	84.0	85.0	87.0	90.0	95.0	102.0	109.0	115.0	119.0	121.0	120.0	118.0	115.0	112.0	109.0	106.0	103.0	101.0	98.0	96.0	94.0	91.0	89.0	87.0	85.0	85.0	85.0	86.0	87.0	87.0	87.0	87.0	87.0	87.0	86.0	86.0	86.0	87.0	88.0	89.0	90.0	90.0	90.0	89.0	88.0	87.0	89.0	92.0	97.0	104.0	111.0	117.0	121.0	123.0	122.0	119.0	115.0	111.0	106.0	101.0	96.0	92.0	88.0	86.0	84.0	84.0	84.0	85.0	87.0	90.0	91.0	93.0	93.0	93.0	93.0	92.0	91.0	90.0	88.0	86.0	83.0	80.0	78.0	77.0	76.0	76.0	75.0	75.0	75.0	75.0	77.0	79.0	84.0	90.0	97.0	104.0	109.0	113.0	115.0	115.0	114.0	113.0	112.0	111.0	109.0	108.0	107.0	106.0	105.0	105.0	106.0	106.0	107.0	108.0	109.0	110.0	110.0	110.0	110.0	110.0	109.0	108.0	107.0	105.0	102.0	99.0	97.0	94.0	92.0	90.0	89.0	89.0	89.0	89.0	90.0	91.0	93.0	97.0	102.0	109.0	117.0	124.0	128.0	131.0	132.0	130.0	127.0	124.0	119.0	113.0	108.0	103.0	98.0	94.0	91.0	88.0	86.0	85.0	83.0	83.0	82.0	82.0	82.0	82.0	82.0	83.0	83.0	83.0	83.0	83.0	82.0	82.0	82.0	82.0	82.0	82.0	83.0	83.0	83.0	83.0	84.0	85.0	87.0	89.0	94.0	101.0	109.0	118.0	127.0	132.0	137.0	138.0	138.0	136.0	132.0	129.0	126.0	122.0	119.0	115.0	113.0	110.0	108.0	106.0	104.0	102.0	101.0	100.0	99.0	99.0	98.0	98.0	97.0	97.0	97.0	96.0	96.0	95.0	94.0	93.0	92.0	91.0	90.0	89.0	89.0	88.0	88.0	88.0	87.0	87.0	87.0	88.0	89.0	92.0	96.0	102.0	110.0	118.0	125.0	129.0	132.0	133.0	131.0	128.0	125.0	121.0	118.0	114.0	110.0	107.0	104.0	101.0	99.0	97.0	96.0	96.0	96.0	97.0	97.0	98.0	98.0	99.0	99.0	99.0	98.0	98.0	97.0	96.0	96.0	95.0	94.0	93.0	92.0	91.0	90.0	90.0	89.0	89.0	88.0	87.0	87.0	87.0	87.0	90.0	94.0	101.0	108.0	116.0	122.0	126.0	127.0	127.0	126.0	122.0	119.0	115.0	111.0	108.0	104.0	101.0	99.0	96.0	94.0	93.0	92.0	92.0	93.0	94.0	95.0	96.0	97.0	97.0	97.0	97.0	96.0	96.0	95.0	94.0	93.0	92.0	91.0	90.0	88.0	87.0	86.0	85.0	84.0	83.0	83.0	83.0	83.0	83.0	84.0	86.0	90.0	96.0	104.0	112.0	119.0	124.0	127.0	127.0	125.0	121.0	117.0	113.0	109.0	105.0	102.0	100.0	98.0	97.0	95.0	94.0	93.0	92.0	92.0	92.0	93.0	94.0	95.0	96.0	97.0	97.0	97.0	96.0	95.0	93.0	91.0	89.0	88.0	87.0	86.0	86.0	86.0	87.0	87.0	88.0	89.0	90.0	91.0	91.0	91.0	92.0	92.0	94.0	97.0	101.0	107.0	112.0	116.0	118.0	118.0	115.0	111.0	107.0	103.0	99.0	96.0	93.0	91.0	89.0	87.0	86.0	85.0	85.0	86.0	86.0	87.0	89.0	90.0	91.0	92.0	93.0	93.0	93.0	92.0	92.0	92.0	91.0	91.0	90.0	90.0	89.0	89.0	89.0	88.0	88.0	88.0	88.0	88.0	88.0	90.0	92.0	97.0	103.0	109.0	115.0	120.0	122.0	123.0	122.0	120.0	117.0	114.0	111.0	108.0	106.0	103.0	101.0	100.0	98.0	97.0	97.0	97.0	97.0	98.0	99.0	100.0	101.0	101.0	101.0	101.0	100.0	98.0	96.0	94.0	92.0	90.0	88.0	87.0	85.0	85.0	84.0	84.0	83.0	83.0	84.0	84.0	86.0	90.0	95.0	102.0	109.0	116.0	121.0	124.0	124.0	122.0	119.0	115.0	111.0	107.0	104.0	102.0	100.0	99.0	97.0	96.0	96.0	96.0	97.0	97.0	98.0	100.0	101.0	101.0	102.0	102.0	101.0	100.0	99.0	98.0	97.0	96.0	95.0	95.0	94.0	94.0	93.0	93.0	93.0	92.0	92.0	91.0	91.0	92.0	94.0	97.0	102.0	107.0	113.0	117.0	119.0	119.0	118.0	115.0	112.0	109.0	106.0	103.0	101.0	99.0	97.0	95.0	94.0	93.0	92.0	92.0	93.0	94.0	95.0	97.0	98.0	99.0	100.0	101.0	100.0	100.0	100.0	99.0	98.0	98.0	97.0	96.0	95.0	94.0	93.0	92.0	92.0	91.0	90.0	90.0	90.0	92.0	95.0	100.0	106.0	113.0	118.0	121.0	122.0	121.0	118.0	115.0	112.0	109.0	106.0	103.0	100.0	98.0	96.0	94.0	93.0	93.0	93.0	94.0	95.0	97.0	99.0	100.0	101.0	101.0	101.0	101.0	100.0	100.0	99.0	98.0	97.0	97.0	96.0	96.0	95.0	95.0	95.0	94.0	94.0	94.0	94.0	93.0	93.0	94.0	97.0	101.0	106.0	112.0	118.0	122.0	124.0	124.0	122.0	119.0	116.0	112.0	109.0	105.0	102.0	100.0	97.0	95.0	94.0	93.0	92.0	92.0	93.0	94.0	96.0	97.0	99.0	100.0	100.0	100.0	100.0	99.0	98.0	97.0	96.0	95.0	95.0	94.0	93.0	93.0	92.0	92.0	92.0	91.0	91.0	91.0	91.0	91.0	92.0	92.0	95.0	98.0	103.0	109.0	114.0	119.0	122.0	123.0	122.0	119.0	116.0	113.0	110.0	107.0	104.0	102.0	100.0	98.0	97.0	96.0	95.0	95.0	96.0	97.0	99.0	100.0	101.0	102.0	102.0	102.0	102.0	101.0	101.0	100.0	99.0	99.0	98.0	97.0	97.0	96.0	95.0	94.0	93.0	93.0	92.0	92.0	92.0	92.0	92.0	93.0	93.0	93.0	95.0	98.0	103.0	109.0	115.0	121.0	125.0	127.0	127.0	125.0	122.0	119.0	115.0	112.0	110.0	107.0	106.0	104.0	103.0	103.0	103.0	103.0	103.0	104.0	105.0	105.0	106.0	106.0	106.0	106.0	105.0	104.0	103.0	101.0	99.0	97.0	96.0	95.0	94.0	93.0	93.0	93.0	92.0	92.0	92.0	92.0	93.0	93.0	94.0	94.0	94.0	94.0	94.0	94.0	95.0	97.0	100.0	103.0	108.0	111.0	114.0	115.0	115.0	113.0	111.0	108.0	105.0	102.0	100.0	97.0	95.0	94.0	93.0	92.0	91.0	92.0	92.0	93.0	94.0	96.0	97.0	98.0	98.0	99.0	99.0	99.0	98.0	98.0	99.0	99.0	100.0	100.0	101.0	101.0	100.0	100.0	99.0	98.0	97.0	96.0	94.0	93.0	92.0	90.0	89.0	88.0	87.0	87.0	87.0	89.0	93.0	98.0	103.0	109.0	114.0	116.0	117.0	116.0	114.0	112.0	108.0	106.0	103.0	101.0	100.0	99.0	98.0	97.0	97.0	96.0	97.0	98.0	99.0	101.0	102.0	103.0	104.0	105.0	105.0	104.0	104.0	103.0	102.0	101.0	99.0	98.0	97.0	96.0	95.0	94.0	94.0	93.0	93.0	92.0	92.0	91.0	91.0	90.0	90.0	90.0	90.0	91.0	94.0	98.0	103.0	109.0	115.0	119.0	121.0	121.0	119.0	116.0	113.0	110.0	107.0	104.0	101.0	99.0	97.0	95.0	94.0	94.0	94.0	95.0	97.0	98.0	99.0	100.0	100.0	100.0	100.0	100.0	99.0	98.0	97.0	97.0	96.0	95.0	95.0	94.0	94.0	93.0	93.0	93.0	93.0	93.0	93.0	92.0	92.0	92.0	93.0	94.0	97.0	101.0	107.0	113.0	120.0	125.0	127.0	128.0	127.0	125.0	122.0	119.0	115.0	112.0	110.0	107.0	105.0	102.0	101.0	99.0	99.0	99.0	99.0	100.0	101.0	103.0	104.0	104.0	104.0	103.0	102.0	102.0	101.0	101.0	101.0	101.0	101.0	101.0	101.0	100.0	99.0	98.0	96.0	94.0	92.0	89.0	87.0	85.0	84.0	84.0	85.0	88.0	93.0	100.0	108.0	116.0	123.0	127.0	129.0	129.0	127.0	124.0	120.0	116.0	112.0	108.0	104.0	102.0	99.0	98.0	97.0	97.0	97.0	97.0	98.0	99.0	99.0	100.0	100.0	100.0	99.0	98.0	97.0	97.0	96.0	96.0	96.0	95.0	95.0	94.0	94.0	93.0	93.0	93.0	93.0	92.0	92.0	92.0	91.0	90.0	88.0	87.0	86.0	86.0	88.0	93.0	98.0	105.0	112.0	117.0	120.0	122.0	121.0	119.0	117.0	115.0	113.0	111.0	110.0	109.0	108.0	107.0	106.0	106.0	105.0	104.0	104.0	104.0	104.0	105.0	105.0	105.0	104.0	104.0	103.0	102.0	101.0	100.0	98.0	97.0	96.0	95.0	95.0	94.0	93.0	92.0	92.0	91.0	91.0	91.0	90.0	90.0	89.0	89.0	89.0	90.0	92.0	96.0	102.0	109.0	117.0	124.0	128.0	131.0	132.0	131.0	129.0	127.0	124.0	121.0	119.0	116.0	114.0	112.0	110.0	108.0	107.0	106.0	106.0	106.0	106.0	106.0	106.0	106.0	106.0	105.0	103.0	102.0	100.0	98.0	96.0	94.0	92.0	91.0	90.0	90.0	89.0	89.0	88.0	88.0	88.0	89.0	88.0	88.0	88.0	87.0	86.0	86.0	85.0	86.0	89.0	94.0	101.0	108.0	115.0	120.0	123.0	124.0	122.0	120.0	117.0	113.0	110.0	108.0	105.0	103.0	102.0	101.0	100.0	99.0	99.0	100.0	101.0	102.0	104.0	106.0	107.0	108.0	109.0	108.0	107.0	106.0	105.0	103.0	101.0	100.0	98.0	97.0	96.0	95.0	94.0	93.0	92.0	91.0	90.0	88.0	86.0	85.0	83.0	82.0	81.0	82.0	83.0	86.0	91.0	98.0	106.0	114.0	121.0	126.0	127.0	127.0	124.0	120.0	116.0	112.0	108.0	105.0	102.0	100.0	98.0	97.0	96.0	95.0	95.0	95.0	96.0	97.0	97.0	98.0	98.0	98.0	97.0	97.0	95.0	94.0	93.0	91.0	90.0	89.0	88.0	88.0	87.0	87.0	87.0	87.0	87.0	87.0	87.0	87.0	88.0	88.0	89.0	89.0	90.0	90.0	91.0	93.0	97.0	102.0	109.0	117.0	124.0	128.0	131.0	132.0	131.0	129.0	127.0	125.0	122.0	120.0	117.0	115.0	113.0	112.0	110.0	109.0	109.0	109.0	109.0	110.0	111.0	112.0	113.0	114.0	114.0	114.0	112.0	110.0	107.0	105.0	102.0	100.0	99.0	98.0	97.0	97.0	97.0	96.0	95.0	94.0	92.0	91.0	90.0	89.0	88.0	88.0	87.0	87.0	86.0	87.0	89.0	93.0	99.0	106.0	113.0	118.0	121.0	122.0	121.0	118.0	114.0	110.0	106.0	103.0	100.0	97.0	95.0	93.0	91.0	90.0	89.0	90.0	91.0	93.0	94.0	96.0	96.0	96.0	96.0	95.0	93.0	91.0	89.0	86.0	83.0	80.0	78.0	75.0	73.0	71.0	70.0	69.0	69.0	69.0	69.0	70.0	71.0	71.0	71.0	71.0	70.0	71.0	72.0	76.0	81.0	88.0	96.0	103.0	109.0	113.0	115.0	116.0	115.0	114.0	113.0	111.0	111.0	110.0	110.0	110.0	109.0	109.0	108.0	107.0	105.0	104.0	102.0	101.0	99.0	98.0	97.0	95.0	94.0	91.0	89.0	85.0	82.0	79.0	77.0	75.0	74.0	73.0	72.0	71.0	69.0	67.0	65.0	63.0	61.0	59.0	58.0	58.0	58.0	60.0	63.0	69.0	77.0	86.0	96.0	104.0	111.0	116.0	118.0	119.0	118.0	116.0	114.0	111.0	107.0	103.0	100.0	97.0	95.0	94.0	94.0	94.0	95.0	96.0	97.0	98.0	99.0	101.0	102.0	104.0	105.0	107.0	108.0	109.0	109.0	109.0	108.0	107.0	106.0	106.0	105.0	104.0	104.0	103.0	102.0	101.0	99.0	98.0	95.0	93.0	92.0	92.0	95.0	99.0	105.0	113.0	121.0	127.0	132.0	135.0	137.0	137.0	136.0	134.0	132.0	130.0	128.0	127.0	125.0	123.0	121.0	120.0	120.0	120.0	120.0	120.0	121.0	121.0	120.0	119.0	118.0	116.0	114.0	111.0	108.0	104.0	101.0	98.0	95.0	93.0	91.0	90.0	88.0	87.0	85.0	83.0	80.0	78.0	76.0	76.0	77.0	81.0	88.0	96.0	106.0	116.0	124.0	128.0	131.0	130.0	127.0	125.0	121.0	117.0	114.0	111.0	108.0	106.0	103.0	101.0	99.0	98.0	97.0	97.0	97.0	97.0	97.0	96.0	96.0	95.0	94.0	93.0	92.0	91.0	89.0	88.0	87.0	85.0	84.0	82.0	81.0	80.0	79.0	77.0	77.0	76.0	77.0	79.0	82.0	87.0	94.0	102.0	110.0	117.0	123.0	126.0	127.0	127.0	127.0	125.0	122.0	119.0	116.0	113.0	110.0	109.0	108.0	107.0	107.0	107.0	109.0	111.0	113.0	116.0	119.0	121.0	122.0	123.0	123.0	123.0	122.0	120.0	115.0	109.0	103.0	97.0	92.0	88.0	86.0	84.0	83.0	81.0	79.0	76.0	72.0	69.0	68.0	68.0	71.0	77.0	84.0	92.0	99.0	104.0	106.0	108.0	108.0	108.0	107.0	105.0	103.0	100.0	96.0	93.0	90.0	89.0	90.0	91.0	93.0	94.0	95.0	96.0	97.0	98.0	99.0	100.0	101.0	101.0	100.0	97.0	94.0	91.0	88.0	86.0	86.0	87.0	89.0	90.0	91.0	90.0	88.0	86.0	84.0	83.0	84.0	88.0	94.0	102.0	110.0	118.0	124.0	128.0	131.0	131.0	130.0	129.0	127.0	125.0	121.0	118.0	114.0	110.0	106.0	104.0	101.0	99.0	96.0	93.0	90.0	86.0	83.0	79.0	74.0	69.0	65.0	61.0	59.0	59.0	60.0	62.0	63.0	63.0	61.0	59.0	56.0	54.0	52.0	51.0	50.0	50.0	51.0	53.0	55.0	58.0	62.0	69.0	78.0	88.0	99.0	109.0	117.0	124.0	128.0	131.0	133.0	134.0	134.0	134.0	132.0	130.0	126.0	121.0	116.0	111.0	107.0	104.0	101.0	100.0	99.0	99.0	100.0	100.0	100.0	99.0	97.0	95.0	93.0	91.0	90.0	90.0	89.0	88.0	86.0	84.0	81.0	79.0	77.0	74.0	72.0	71.0	72.0	75.0	82.0	91.0	102.0	113.0	122.0	127.0	130.0	130.0	126.0	119.0	111.0	102.0	95.0	88.0	83.0	78.0	75.0	73.0	71.0	71.0	73.0	75.0	78.0	80.0	83.0	86.0	88.0	90.0	91.0	93.0	94.0	94.0	94.0	93.0	91.0	88.0	84.0	81.0	79.0	78.0	77.0	78.0	79.0	81.0	84.0	89.0	96.0	105.0	115.0	126.0	135.0	143.0	150.0	154.0	156.0	156.0	153.0	148.0	142.0	136.0	130.0	125.0	121.0	117.0	113.0	109.0	105.0	101.0	98.0	95.0	92.0	90.0	88.0	86.0	85.0	84.0	84.0	84.0	85.0	86.0	87.0	87.0	88.0	88.0	88.0	88.0	88.0	88.0	87.0	85.0	84.0	83.0	84.0	87.0	92.0	99.0	106.0	113.0	118.0	121.0	121.0	120.0	117.0	113.0	108.0	104.0	100.0	96.0	92.0	88.0	85.0	82.0	81.0	81.0	82.0	85.0	88.0	91.0	94.0	96.0	97.0	96.0	95.0	94.0	93.0	92.0	91.0	91.0	90.0	89.0	89.0	88.0	88.0	87.0	87.0	87.0	89.0	91.0	96.0	103.0	112.0	122.0	129.0	137.0	141.0	143.0	143.0	141.0	138.0	135.0	131.0	127.0	122.0	118.0	114.0	110.0	108.0	106.0	104.0	103.0	102.0	101.0	100.0	99.0	99.0	98.0	98.0	96.0	95.0	94.0	92.0	91.0	89.0	88.0	87.0	86.0	85.0	84.0	82.0	80.0	79.0	77.0	76.0	76.0	78.0	83.0	90.0	98.0	108.0	117.0	125.0	130.0	133.0	134.0	133.0	130.0	128.0	126.0	123.0	121.0	119.0	117.0	115.0	112.0	110.0	107.0	105.0	102.0	100.0	99.0	97.0	96.0	94.0	93.0	92.0	90.0	89.0	88.0	86.0	85.0	83.0	81.0	80.0	79.0	77.0	77.0	76.0	76.0	76.0	76.0	76.0	77.0	80.0	85.0	91.0	99.0	108.0	116.0	122.0	126.0	127.0	126.0	122.0	119.0	114.0	111.0	108.0	105.0	103.0	101.0	100.0	99.0	98.0	97.0	97.0	96.0	96.0	96.0	96.0	96.0	96.0	95.0	94.0	93.0	91.0	89.0	86.0	84.0	81.0	79.0	76.0	74.0	73.0	72.0	71.0	71.0	71.0	71.0	71.0	71.0	71.0	71.0	73.0	76.0	82.0	90.0	99.0	109.0	117.0	124.0	127.0	127.0	126.0	124.0	121.0	118.0	115.0	112.0	110.0	108.0	105.0	103.0	100.0	98.0	96.0	94.0	92.0	91.0	90.0	90.0	89.0	89.0	88.0	87.0	86.0	85.0	84.0	83.0	83.0	82.0	81.0	80.0	80.0	79.0	78.0	77.0	77.0	76.0	76.0	75.0	75.0	74.0	74.0	74.0	75.0	78.0	83.0	91.0	99.0	108.0	115.0	121.0	123.0	124.0	122.0	120.0	118.0	115.0	114.0	112.0	110.0	108.0	106.0	103.0	101.0	99.0	98.0	97.0	97.0	98.0	99.0	99.0	99.0	99.0	99.0	98.0	97.0	96.0	95.0	93.0	92.0	90.0	87.0	84.0	81.0	78.0	76.0	74.0	73.0	73.0	73.0	74.0	75.0	76.0	78.0	80.0	84.0	90.0	99.0	108.0	118.0	127.0	133.0	136.0	137.0	136.0	133.0	129.0	126.0	122.0	118.0	113.0	109.0	106.0	103.0	101.0	100.0	99.0	98.0	98.0	98.0	99.0	99.0	99.0	99.0	99.0	98.0	97.0	96.0	95.0	93.0	92.0	91.0	89.0	88.0	87.0	86.0	84.0	84.0	83.0	82.0	81.0	80.0	79.0	78.0	76.0	75.0	76.0	78.0	83.0	91.0	99.0	108.0	114.0	118.0	120.0	119.0	116.0	113.0	109.0	105.0	102.0	99.0	97.0	95.0	94.0	92.0	92.0	91.0	91.0	91.0	92.0	93.0	94.0	95.0	95.0	95.0	95.0	95.0	95.0	94.0	94.0	93.0	92.0	92.0	91.0	90.0	90.0	89.0	89.0	88.0	88.0	88.0	88.0	87.0	87.0	87.0	87.0	87.0	88.0	90.0	94.0	100.0	108.0	116.0	122.0	127.0	128.0	127.0	126.0	122.0	118.0	114.0	111.0	108.0	105.0	103.0	100.0	99.0	97.0	96.0	96.0	96.0	96.0	96.0	97.0	97.0	98.0	98.0	98.0	98.0	98.0	97.0	96.0	95.0	94.0	93.0	92.0	91.0	91.0	90.0	90.0	90.0	90.0	89.0	89.0	89.0	89.0	88.0	89.0	89.0	91.0	93.0	97.0	103.0	110.0	117.0	123.0	127.0	129.0	129.0	127.0	125.0	122.0	119.0	116.0	112.0	108.0	105.0	102.0	100.0	99.0	98.0	97.0	96.0	96.0	96.0	97.0	98.0	99.0	99.0	99.0	115.0	111.0	108.0	106.0	104.0	103.0	102.0	102.0	102.0	103.0	104.0	105.0	107.0	108.0	109.0	110.0	110.0	109.0	108.0	107.0	105.0	104.0	102.0	101.0	100.0	99.0	98.0	97.0	97.0	96.0	95.0	95.0	94.0	93.0	92.0	91.0	90.0	89.0	90.0	93.0	98.0	105.0	112.0	118.0	122.0	124.0	124.0	122.0	120.0	117.0	114.0	112.0	110.0	108.0	107.0	105.0	105.0	104.0	104.0	104.0	104.0	104.0	104.0	104.0	104.0	103.0	103.0	102.0	100.0	99.0	97.0	96.0	95.0	94.0	93.0	92.0	92.0	91.0	91.0	91.0	90.0	90.0	89.0	89.0	88.0	89.0	89.0	91.0	95.0	99.0	105.0	112.0	118.0	122.0	125.0	125.0	124.0	121.0	119.0	116.0	113.0	111.0	110.0	108.0	107.0	106.0	106.0	105.0	104.0	104.0	104.0	104.0	104.0	104.0	104.0	103.0	102.0	101.0	100.0	99.0	98.0	97.0	96.0	95.0	96.0	96.0	97.0	98.0	98.0	98.0	98.0	98.0	98.0	98.0	97.0	97.0	98.0	100.0	103.0	108.0	114.0	120.0	124.0	126.0	126.0	125.0	122.0	118.0	115.0	111.0	108.0	105.0	103.0	101.0	99.0	97.0	95.0	94.0	93.0	92.0	92.0	91.0	90.0	90.0	89.0	89.0	89.0	89.0	88.0	88.0	87.0	87.0	87.0	86.0	86.0	86.0	86.0	86.0	85.0	85.0	85.0	85.0	85.0	85.0	85.0	87.0	89.0	93.0	99.0	105.0	111.0	116.0	120.0	121.0	121.0	119.0	117.0	114.0	111.0	108.0	106.0	103.0	101.0	100.0	98.0	98.0	97.0	97.0	97.0	98.0	99.0	100.0	100.0	101.0	101.0	101.0	100.0	100.0	99.0	98.0	97.0	96.0	96.0	95.0	95.0	94.0	94.0	93.0	92.0	92.0	92.0	92.0	92.0	93.0	96.0	101.0	106.0	113.0	118.0	123.0	125.0	126.0	125.0	122.0	119.0	115.0	112.0	109.0	106.0	104.0	102.0	99.0	98.0	96.0	96.0	95.0	96.0	96.0	97.0	98.0	99.0	99.0	99.0	99.0	99.0	98.0	97.0	96.0	95.0	94.0	94.0	93.0	93.0	92.0	92.0	92.0	92.0	92.0	92.0	92.0	92.0	94.0	97.0	102.0	108.0	114.0	120.0	124.0	126.0	126.0	124.0	121.0	118.0	115.0	112.0	110.0	108.0	105.0	103.0	102.0	100.0	99.0	98.0	98.0	98.0	98.0	98.0	99.0	99.0	99.0	99.0	99.0	98.0	97.0	97.0	96.0	95.0	95.0	94.0	93.0	92.0	91.0	91.0	90.0	89.0	89.0	88.0	88.0	88.0	89.0	92.0	96.0	102.0	108.0	115.0	120.0	124.0	126.0	126.0	124.0	122.0	119.0	116.0	114.0	111.0	109.0	108.0	106.0	105.0	104.0	103.0	102.0	102.0	102.0	102.0	102.0	102.0	102.0	101.0	100.0	99.0	98.0	97.0	96.0	95.0	94.0	93.0	92.0	91.0	90.0	90.0	90.0	89.0	89.0	88.0	88.0	88.0	88.0	88.0	89.0	92.0	96.0	102.0	109.0	115.0	121.0	124.0	125.0	125.0	123.0	120.0	117.0	114.0	111.0	109.0	107.0	106.0	104.0	102.0	101.0	100.0	100.0	100.0	100.0	100.0	100.0	101.0	101.0	100.0	100.0	99.0	98.0	97.0	96.0	95.0	94.0	92.0	91.0	91.0	90.0	89.0	89.0	88.0	88.0	87.0	87.0	87.0	87.0	87.0	87.0	88.0	90.0	94.0	100.0	107.0	114.0	119.0	123.0	125.0	124.0	123.0	120.0	117.0	114.0	112.0	109.0	108.0	106.0	104.0	103.0	101.0	100.0	99.0	99.0	99.0	100.0	100.0	100.0	100.0	100.0	100.0	99.0	98.0	97.0	96.0	95.0	94.0	93.0	91.0	90.0	89.0	88.0	87.0	86.0	85.0	85.0	85.0	84.0	84.0	84.0	85.0	85.0	87.0	89.0	93.0	98.0	105.0	113.0	120.0	126.0	129.0	131.0	131.0	129.0	127.0	124.0	121.0	119.0	116.0	114.0	112.0	110.0	107.0	105.0	103.0	101.0	100.0	100.0	99.0	99.0	99.0	98.0	98.0	97.0	96.0	95.0	93.0	92.0	91.0	90.0	90.0	89.0	88.0	88.0	87.0	86.0	86.0	85.0	84.0	83.0	82.0	81.0	81.0	81.0	81.0	82.0	84.0	87.0	92.0	99.0	106.0	113.0	118.0	121.0	122.0	121.0	118.0	116.0	113.0	110.0	108.0	105.0	103.0	102.0	100.0	98.0	97.0	96.0	95.0	95.0	95.0	96.0	97.0	97.0	98.0	97.0	97.0	96.0	96.0	95.0	94.0	93.0	92.0	91.0	90.0	89.0	88.0	88.0	87.0	86.0	86.0	86.0	85.0	85.0	85.0	84.0	84.0	84.0	85.0	88.0	93.0	99.0	107.0	114.0	120.0	125.0	127.0	127.0	125.0	123.0	120.0	117.0	114.0	112.0	109.0	107.0	105.0	104.0	102.0	101.0	100.0	100.0	100.0	100.0	100.0	100.0	100.0	100.0	100.0	99.0	98.0	97.0	96.0	95.0	94.0	93.0	91.0	90.0	89.0	88.0	87.0	87.0	86.0	86.0	85.0	85.0	84.0	84.0	83.0	83.0	84.0	86.0	90.0	95.0	103.0	110.0	117.0	122.0	125.0	125.0	124.0	121.0	118.0	115.0	112.0	109.0	107.0	105.0	103.0	101.0	100.0	98.0	98.0	97.0	98.0	99.0	100.0	101.0	102.0	103.0	104.0	104.0	105.0	105.0	106.0	106.0	105.0	103.0	102.0	100.0	98.0	96.0	94.0	92.0	89.0	87.0	85.0	83.0	82.0	81.0	80.0	80.0	80.0	81.0	83.0	88.0	94.0	102.0	110.0	118.0	123.0	125.0	126.0	124.0	121.0	118.0	115.0	111.0	109.0	106.0	105.0	103.0	102.0	101.0	101.0	102.0	103.0	104.0	105.0	106.0	106.0	106.0	105.0	104.0	103.0	101.0	100.0	99.0	98.0	98.0	97.0	97.0	96.0	94.0	93.0	91.0	90.0	89.0	88.0	88.0	87.0	87.0	87.0	87.0	87.0	88.0	90.0	94.0	99.0	106.0	112.0	117.0	121.0	123.0	123.0	122.0	120.0	116.0	113.0	109.0	106.0	103.0	100.0	98.0	96.0	95.0	94.0	94.0	94.0	94.0	94.0	94.0	94.0	94.0	95.0	94.0	94.0	93.0	92.0	91.0	90.0	89.0	88.0	87.0	86.0	86.0	85.0	85.0	84.0	84.0	84.0	84.0	84.0	85.0	85.0	86.0	88.0	91.0	96.0	103.0	110.0	118.0	125.0	129.0	132.0	134.0	134.0	133.0	132.0	129.0	127.0	124.0	121.0	117.0	114.0	112.0	110.0	108.0	107.0	106.0	105.0	104.0	104.0	104.0	103.0	102.0	102.0	101.0	99.0	98.0	96.0	94.0	92.0	91.0	90.0	90.0	90.0	91.0	92.0	92.0	92.0	92.0	91.0	91.0	91.0	93.0	97.0	103.0	110.0	118.0	125.0	130.0	133.0	134.0	133.0	131.0	127.0	125.0	121.0	118.0	115.0	112.0	110.0	107.0	105.0	103.0	101.0	101.0	100.0	100.0	100.0	101.0	101.0	101.0	100.0	99.0	98.0	97.0	95.0	93.0	92.0	90.0	89.0	87.0	86.0	85.0	84.0	84.0	83.0	82.0	81.0	81.0	81.0	82.0	86.0	92.0	99.0	108.0	117.0	125.0	129.0	132.0	132.0	130.0	128.0	125.0	122.0	118.0	115.0	113.0	110.0	107.0	105.0	103.0	101.0	100.0	99.0	99.0	99.0	98.0	98.0	97.0	96.0	95.0	94.0	92.0	92.0	91.0	91.0	90.0	90.0	90.0	89.0	88.0	87.0	86.0	85.0	85.0	84.0	84.0	84.0	86.0	90.0	95.0	103.0	111.0	119.0	125.0	127.0	128.0	127.0	125.0	122.0	118.0	114.0	111.0	108.0	106.0	103.0	101.0	100.0	99.0	98.0	97.0	97.0	97.0	97.0	97.0	97.0	97.0	96.0	96.0	94.0	93.0	91.0	90.0	88.0	87.0	85.0	84.0	82.0	81.0	79.0	78.0	77.0	76.0	75.0	74.0	75.0	76.0	79.0	84.0	92.0	100.0	108.0	115.0	120.0	123.0	122.0	120.0	117.0	113.0	109.0	106.0	103.0	101.0	100.0	99.0	98.0	98.0	98.0	98.0	98.0	99.0	99.0	98.0	97.0	96.0	94.0	92.0	91.0	90.0	89.0	88.0	88.0	88.0	89.0	90.0	91.0	91.0	90.0	89.0	88.0	88.0	87.0	86.0	85.0	86.0	88.0	92.0	98.0	105.0	112.0	119.0	123.0	125.0	125.0	123.0	120.0	117.0	114.0	110.0	107.0	104.0	101.0	98.0	95.0	93.0	92.0	91.0	90.0	90.0	90.0	90.0	91.0	91.0	90.0	90.0	89.0	89.0	89.0	89.0	89.0	88.0	88.0	88.0	87.0	87.0	87.0	86.0	86.0	86.0	86.0	85.0	84.0	83.0	83.0	86.0	91.0	98.0	107.0	115.0	122.0	126.0	127.0	127.0	125.0	122.0	118.0	115.0	113.0	111.0	109.0	106.0	104.0	102.0	101.0	99.0	99.0	99.0	99.0	99.0	99.0	99.0	99.0	98.0	97.0	95.0	93.0	90.0	88.0	86.0	83.0	81.0	80.0	78.0	78.0	77.0	76.0	75.0	74.0	72.0	71.0	71.0	71.0	73.0	78.0	85.0	94.0	104.0	113.0	120.0	125.0	127.0	127.0	125.0	122.0	119.0	116.0	113.0	109.0	107.0	104.0	102.0	100.0	99.0	99.0	99.0	100.0	101.0	102.0	103.0	102.0	102.0	100.0	99.0	96.0	94.0	92.0	90.0	88.0	86.0	85.0	84.0	83.0	82.0	81.0	81.0	80.0	79.0	78.0	78.0	79.0	82.0	87.0	94.0	103.0	113.0	121.0	127.0	129.0	130.0	129.0	127.0	123.0	119.0	115.0	112.0	109.0	108.0	106.0	105.0	104.0	103.0	103.0	103.0	104.0	104.0	104.0	104.0	103.0	100.0	97.0	94.0	91.0	89.0	87.0	86.0	85.0	84.0	84.0	84.0	83.0	83.0	82.0	82.0	80.0	79.0	79.0	80.0	84.0	90.0	98.0	108.0	117.0	126.0	131.0	134.0	135.0	134.0	133.0	130.0	128.0	126.0	123.0	120.0	117.0	113.0	110.0	108.0	106.0	105.0	105.0	105.0	105.0	105.0	105.0	104.0	103.0	101.0	99.0	97.0	95.0	93.0	91.0	89.0	87.0	86.0	84.0	83.0	81.0	80.0	78.0	77.0	76.0	76.0	79.0	84.0	91.0	101.0	110.0	119.0	126.0	129.0	130.0	129.0	127.0	126.0	123.0	121.0	120.0	118.0	115.0	113.0	109.0	106.0	102.0	99.0	97.0	95.0	94.0	94.0	93.0	93.0	93.0	93.0	92.0	91.0	89.0	87.0	85.0	84.0	82.0	81.0	80.0	79.0	79.0	78.0	78.0	78.0	77.0	78.0	79.0	82.0	87.0	95.0	105.0	116.0	126.0	133.0	139.0	142.0	142.0	140.0	137.0	134.0	130.0	127.0	125.0	122.0	119.0	116.0	113.0	110.0	107.0	105.0	103.0	102.0	102.0	102.0	102.0	102.0	101.0	100.0	98.0	96.0	94.0	92.0	89.0	87.0	86.0	84.0	83.0	83.0	82.0	82.0	83.0	82.0	82.0	80.0	79.0	76.0	75.0	77.0	81.0	89.0	100.0	111.0	122.0	131.0	137.0	141.0	142.0	142.0	139.0	136.0	133.0	130.0	127.0	125.0	122.0	118.0	114.0	111.0	109.0	107.0	106.0	105.0	104.0	104.0	103.0	102.0	101.0	99.0	97.0	94.0	92.0	89.0	87.0	85.0	83.0	81.0	79.0	78.0	77.0	76.0	75.0	73.0	72.0	72.0	71.0	71.0	72.0	73.0	76.0	80.0	87.0	95.0	106.0	117.0	127.0	135.0	141.0	144.0	143.0	140.0	136.0	131.0	127.0	123.0	118.0	113.0	108.0	102.0	97.0	92.0	89.0	89.0	89.0	92.0	95.0	98.0	101.0	103.0	105.0	106.0	106.0	105.0	103.0	102.0	102.0	101.0	99.0	96.0	92.0	88.0	84.0	79.0	75.0	71.0	67.0	63.0	60.0	59.0	59.0	59.0	61.0	62.0	65.0	68.0	73.0	79.0	87.0	95.0	103.0	108.0	111.0	112.0	111.0	109.0	107.0	105.0	104.0	102.0	100.0	97.0	96.0	94.0	93.0	93.0	93.0	93.0	93.0	94.0	95.0	96.0	97.0	98.0	98.0	97.0	96.0	94.0	93.0	91.0	90.0	89.0	89.0	89.0	89.0	90.0	91.0	92.0	92.0	91.0	90.0	89.0	87.0	85.0	84.0	83.0	83.0	85.0	89.0	96.0	104.0	113.0	122.0	127.0	131.0	133.0	132.0	131.0	129.0	127.0	125.0	123.0	119.0	116.0	112.0	108.0	105.0	102.0	99.0	96.0	93.0	90.0	89.0	89.0	91.0	94.0	96.0	98.0	99.0	98.0	97.0	96.0	95.0	94.0	92.0	90.0	86.0	83.0	80.0	76.0	73.0	71.0	68.0	66.0	64.0	63.0	61.0	60.0	60.0	61.0	64.0	69.0	77.0	87.0	99.0	109.0	118.0	124.0	127.0	127.0	125.0	123.0	121.0	118.0	116.0	113.0	109.0	105.0	102.0	98.0	95.0	93.0	91.0	89.0	88.0	87.0	86.0	85.0	84.0	84.0	83.0	82.0	81.0	79.0	77.0	75.0	73.0	71.0	69.0	68.0	67.0	66.0	66.0	65.0	65.0	64.0	64.0	64.0	64.0	65.0	66.0	69.0	75.0	84.0	95.0	108.0	121.0	131.0	140.0	145.0	147.0	147.0	145.0	141.0	137.0	133.0	129.0	125.0	121.0	118.0	115.0	113.0	112.0	111.0	110.0	111.0	111.0	112.0	112.0	111.0	110.0	108.0	106.0	103.0	101.0	99.0	97.0	95.0	93.0	92.0	91.0	92.0	92.0	93.0	94.0	94.0	94.0	94.0	93.0	93.0	93.0	96.0	100.0	106.0	113.0	121.0	127.0	131.0	134.0	135.0	134.0	131.0	128.0	125.0	120.0	115.0	111.0	106.0	102.0	99.0	96.0	94.0	92.0	92.0	92.0	93.0	94.0	95.0	96.0	96.0	96.0	96.0	95.0	94.0	93.0	91.0	90.0	89.0	88.0	87.0	86.0	85.0	85.0	84.0	83.0	82.0	81.0	80.0	80.0	82.0	86.0	93.0	103.0	114.0	127.0	137.0	146.0	152.0	155.0	154.0	152.0	148.0	143.0	139.0	134.0	129.0	125.0	121.0	116.0	112.0	108.0	105.0	104.0	103.0	103.0	103.0	103.0	103.0	102.0	102.0	101.0	100.0	98.0	96.0	94.0	91.0	89.0	86.0	84.0	82.0	80.0	79.0	78.0	77.0	77.0	77.0	76.0	77.0	78.0	82.0	88.0	97.0	106.0	115.0	123.0	128.0	132.0	134.0	134.0	134.0	132.0	131.0	129.0	128.0	127.0	124.0	121.0	118.0	114.0	111.0	109.0	108.0	108.0	108.0	109.0	109.0	109.0	109.0	108.0	108.0	106.0	105.0	103.0	101.0	98.0	96.0	93.0	91.0	88.0	86.0	84.0	82.0	80.0	79.0	77.0	77.0	78.0	81.0	87.0	95.0	104.0	114.0	122.0	127.0	131.0	133.0	134.0	133.0	131.0	129.0	127.0	123.0	120.0	116.0	113.0	109.0	106.0	104.0	102.0	100.0	100.0	99.0	99.0	98.0	98.0	97.0	96.0	95.0	93.0	91.0	88.0	85.0	82.0	79.0	77.0	76.0	75.0	74.0	73.0	71.0	69.0	67.0	66.0	64.0	64.0	64.0	66.0	72.0	81.0	92.0	105.0	118.0	127.0	134.0	138.0	139.0	137.0	134.0	130.0	127.0	124.0	120.0	116.0	111.0	107.0	103.0	98.0	93.0	89.0	86.0	85.0	84.0	84.0	85.0	85.0	86.0	86.0	86.0	85.0	84.0	83.0	82.0	82.0	81.0	81.0	81.0	81.0	81.0	81.0	80.0	80.0	80.0	79.0	77.0	76.0	73.0	71.0	69.0	68.0	71.0	77.0	86.0	98.0	111.0	122.0	130.0	136.0	138.0	138.0	135.0	132.0	129.0	126.0	122.0	117.0	113.0	108.0	102.0	97.0	93.0	90.0	88.0	88.0	88.0	89.0	90.0	91.0	92.0	92.0	92.0	91.0	90.0	89.0	87.0	86.0	84.0	82.0	81.0	79.0	78.0	76.0	75.0	74.0	73.0	72.0	71.0	69.0	68.0	68.0	68.0	69.0	71.0	76.0	83.0	92.0	103.0	113.0	122.0	128.0	132.0	133.0	133.0	131.0	128.0	126.0	122.0	119.0	115.0	112.0	109.0	106.0	104.0	102.0	100.0	100.0	100.0	100.0	101.0	103.0	104.0	105.0	105.0	104.0	101.0	98.0	94.0	90.0	87.0	84.0	83.0	82.0	82.0	81.0	81.0	80.0	80.0	80.0	79.0	78.0	78.0	77.0	76.0	75.0	75.0	76.0	79.0	84.0	92.0	102.0	112.0	121.0	127.0	132.0	134.0	134.0	132.0	129.0	126.0	122.0	118.0	114.0	111.0	107.0	104.0	101.0	99.0	97.0	96.0	96.0	96.0	96.0	96.0	96.0	96.0	96.0	95.0	94.0	93.0	91.0	90.0	89.0	88.0	88.0	88.0	87.0	87.0	87.0	86.0	85.0	84.0	83.0	82.0	80.0	78.0	76.0	74.0	73.0	73.0	76.0	81.0	89.0	100.0	110.0	120.0	127.0	130.0	131.0	130.0	128.0	125.0	122.0	118.0	115.0	112.0	110.0	107.0	105.0	103.0	101.0	100.0	100.0	100.0	101.0	101.0	102.0	102.0	101.0	100.0	99.0	97.0	95.0	93.0	92.0	92.0	92.0	91.0	91.0	90.0	88.0	86.0	84.0	81.0	79.0	77.0	75.0	74.0	73.0	73.0	74.0	76.0	78.0	83.0	90.0	98.0	107.0	116.0	123.0	127.0	129.0	129.0	128.0	126.0	123.0	120.0	117.0	114.0	110.0	107.0	104.0	100.0	97.0	95.0	93.0	93.0	92.0	93.0	93.0	93.0	94.0	94.0	94.0	93.0	92.0	91.0	89.0	88.0	86.0	85.0	83.0	82.0	81.0	80.0	79.0	78.0	77.0	76.0	75.0	74.0	73.0	72.0	72.0	72.0	74.0	78.0	84.0	93.0	103.0	114.0	123.0	129.0	133.0	135.0	134.0	132.0	128.0	125.0	121.0	117.0	113.0	109.0	105.0	102.0	100.0	98.0	97.0	97.0	97.0	98.0	99.0	100.0	100.0	100.0	100.0	99.0	98.0	97.0	95.0	93.0	92.0	90.0	88.0	87.0	86.0	85.0	84.0	84.0	83.0	82.0	81.0	81.0	80.0	80.0	82.0	86.0	92.0	100.0	110.0	120.0	128.0	134.0	138.0	140.0	139.0	137.0	134.0	131.0	127.0	124.0	120.0	116.0	112.0	109.0	107.0	105.0	105.0	105.0	105.0	106.0	106.0	107.0	106.0	105.0	104.0	103.0	101.0	99.0	96.0	94.0	92.0	89.0	88.0	86.0	84.0	83.0	81.0	80.0	79.0	78.0	77.0	76.0	75.0	77.0	80.0	87.0	96.0	107.0	118.0	127.0	134.0	139.0	141.0	141.0	139.0	136.0	133.0	129.0	126.0	122.0	118.0	113.0	109.0	105.0	101.0	99.0	97.0	96.0	94.0	93.0	93.0	93.0	93.0	94.0	94.0	95.0	94.0	93.0	92.0	91.0	90.0	89.0	87.0	86.0	85.0	84.0	83.0	82.0	82.0	82.0	81.0	81.0	82.0	84.0	89.0	96.0	105.0	116.0	126.0	134.0	140.0	143.0	143.0	142.0	139.0	137.0	134.0	132.0	128.0	126.0	123.0	120.0	117.0	113.0	110.0	108.0	105.0	104.0	102.0	101.0	100.0	98.0	97.0	95.0	94.0	93.0	93.0	91.0	89.0	87.0	84.0	81.0	78.0	76.0	74.0	73.0	72.0	71.0	70.0	69.0	69.0	68.0	68.0	68.0	69.0	72.0	77.0	84.0	94.0	106.0	117.0	127.0	134.0	139.0	140.0	139.0	136.0	133.0	129.0	126.0	123.0	120.0	116.0	113.0	109.0	105.0	102.0	99.0	97.0	96.0	95.0	95.0	95.0	95.0	95.0	96.0	96.0	96.0	96.0	95.0	94.0	92.0	90.0	88.0	86.0	86.0	85.0	84.0	84.0	83.0	81.0	79.0	76.0	73.0	70.0	67.0	65.0	64.0	64.0	67.0	72.0	79.0	89.0	100.0	111.0	121.0	127.0	132.0	134.0	133.0	131.0	128.0	126.0	123.0	119.0	116.0	113.0	110.0	107.0	105.0	103.0	101.0	100.0	99.0	99.0	99.0	99.0	99.0	100.0	99.0	99.0	98.0	96.0	94.0	93.0	91.0	89.0	88.0	86.0	85.0	84.0	83.0	82.0	81.0	80.0	79.0	78.0	77.0	76.0	75.0	75.0	74.0	74.0	75.0	77.0	82.0	89.0	98.0	109.0	120.0	128.0	134.0	138.0	141.0	141.0	141.0	139.0	137.0	134.0	131.0	128.0	125.0	121.0	117.0	113.0	109.0	106.0	104.0	103.0	102.0	102.0	102.0	101.0	101.0	100.0	98.0	97.0	95.0	93.0	91.0	88.0	86.0	84.0	82.0	80.0	78.0	77.0	76.0	75.0	74.0	73.0	72.0	70.0	69.0	67.0	65.0	64.0	63.0	64.0	67.0	72.0	80.0	90.0	99.0	108.0	115.0	120.0	122.0	121.0	119.0	116.0	113.0	109.0	106.0	102.0	98.0	95.0	92.0	90.0	90.0	90.0	92.0	93.0	95.0	97.0	98.0	99.0	100.0	100.0	99.0	98.0	97.0	95.0	94.0	92.0	90.0	89.0	88.0	87.0	86.0	85.0	84.0	82.0	81.0	81.0	80.0	80.0	80.0	80.0	81.0	83.0	89.0	96.0	106.0	117.0	126.0	133.0	138.0	140.0	140.0	138.0	135.0	130.0	127.0	122.0	117.0	113.0	108.0	104.0	101.0	98.0	96.0	96.0	96.0	97.0	98.0	99.0	99.0	100.0	100.0	100.0	99.0	98.0	96.0	94.0	93.0	91.0	90.0	90.0	89.0	88.0	87.0	86.0	85.0	83.0	82.0	82.0	81.0	80.0	78.0	77.0	76.0	76.0	78.0	83.0	91.0	101.0	112.0	122.0	129.0	134.0	137.0	136.0	134.0	131.0	128.0	126.0	122.0	119.0	116.0	113.0	110.0	108.0	106.0	104.0	103.0	103.0	103.0	103.0	103.0	102.0	102.0	101.0	100.0	99.0	98.0	96.0	94.0	92.0	90.0	88.0	86.0	85.0	85.0	84.0	83.0	83.0	82.0	80.0	79.0	78.0	77.0	76.0	75.0	75.0	75.0	77.0	81.0	88.0	97.0	107.0	116.0	124.0	128.0	130.0	131.0	129.0	127.0	124.0	121.0	117.0	113.0	109.0	106.0	103.0	100.0	98.0	96.0	95.0	95.0	95.0	96.0	96.0	97.0	98.0	98.0	98.0	98.0	97.0	95.0	94.0	92.0	91.0	90.0	89.0	88.0	87.0	85.0	84.0	83.0	82.0	82.0	81.0	81.0	80.0	79.0	78.0	77.0	78.0	80.0	84.0	91.0	101.0	112.0	122.0	130.0	136.0	140.0	141.0	141.0	139.0	136.0	132.0	128.0	124.0	120.0	115.0	111.0	108.0	105.0	103.0	102.0	101.0	100.0	100.0	100.0	100.0	99.0	98.0	97.0	95.0	93.0	91.0	89.0	88.0	86.0	85.0	84.0	82.0	81.0	80.0	79.0	78.0	77.0	76.0	75.0	75.0	74.0	74.0	73.0	74.0	76.0	80.0	86.0	96.0	107.0	119.0	129.0	137.0	143.0	146.0	147.0	144.0	141.0	136.0	132.0	127.0	124.0	120.0	116.0	112.0	109.0	106.0	105.0	104.0	103.0	103.0	103.0	102.0	102.0	102.0	101.0	100.0	99.0	97.0	95.0	93.0	90.0	88.0	85.0	83.0	82.0	80.0	79.0	79.0	79.0	78.0	78.0	77.0	76.0	75.0	74.0	74.0	76.0	81.0	88.0	98.0	109.0	94.0	92.0	90.0	88.0	85.0	82.0	80.0	77.0	75.0	73.0	71.0	71.0	70.0	70.0	71.0	74.0	80.0	88.0	98.0	110.0	122.0	131.0	138.0	142.0	144.0	143.0	140.0	136.0	132.0	128.0	125.0	120.0	116.0	112.0	108.0	105.0	103.0	101.0	100.0	100.0	100.0	100.0	99.0	98.0	97.0	95.0	93.0	91.0	89.0	88.0	86.0	84.0	83.0	82.0	81.0	80.0	79.0	78.0	78.0	78.0	78.0	78.0	78.0	78.0	77.0	76.0	78.0	81.0	87.0	96.0	106.0	116.0	126.0	132.0	137.0	139.0	140.0	139.0	136.0	134.0	131.0	127.0	124.0	120.0	116.0	112.0	109.0	106.0	103.0	102.0	101.0	101.0	101.0	101.0	101.0	101.0	100.0	100.0	99.0	97.0	96.0	93.0	91.0	89.0	87.0	86.0	84.0	83.0	82.0	80.0	79.0	78.0	78.0	77.0	76.0	75.0	75.0	75.0	76.0	80.0	87.0	97.0	108.0	119.0	128.0	136.0	140.0	142.0	142.0	139.0	136.0	133.0	129.0	126.0	123.0	119.0	116.0	113.0	110.0	108.0	107.0	106.0	105.0	104.0	103.0	102.0	102.0	101.0	100.0	99.0	98.0	96.0	94.0	92.0	89.0	87.0	86.0	84.0	83.0	82.0	81.0	80.0	79.0	78.0	77.0	76.0	75.0	74.0	73.0	72.0	73.0	76.0	81.0	90.0	100.0	111.0	122.0	130.0	136.0	140.0	140.0	139.0	137.0	134.0	130.0	127.0	124.0	120.0	116.0	113.0	110.0	107.0	104.0	103.0	101.0	100.0	100.0	100.0	99.0	98.0	96.0	95.0	93.0	91.0	89.0	87.0	84.0	82.0	80.0	78.0	77.0	76.0	75.0	75.0	74.0	74.0	73.0	72.0	72.0	71.0	70.0	70.0	69.0	70.0	71.0	75.0	82.0	92.0	104.0	116.0	127.0	136.0	142.0	145.0	145.0	143.0	140.0	137.0	133.0	129.0	126.0	122.0	118.0	115.0	111.0	107.0	105.0	103.0	102.0	102.0	101.0	98.0	95.0	93.0	92.0	92.0	93.0	92.0	89.0	86.0	83.0	81.0	80.0	79.0	77.0	76.0	74.0	72.0	71.0	70.0	70.0	69.0	68.0	68.0	67.0	66.0	66.0	67.0	69.0	72.0	78.0	86.0	97.0	109.0	122.0	131.0	137.0	140.0	140.0	139.0	137.0	135.0	131.0	127.0	123.0	119.0	115.0	111.0	108.0	105.0	102.0	99.0	98.0	98.0	98.0	98.0	98.0	97.0	97.0	96.0	96.0	95.0	94.0	91.0	89.0	87.0	85.0	83.0	82.0	80.0	78.0	76.0	75.0	74.0	73.0	73.0	73.0	72.0	71.0	71.0	70.0	70.0	70.0	69.0	70.0	72.0	76.0	84.0	94.0	105.0	117.0	127.0	133.0	138.0	140.0	140.0	138.0	136.0	133.0	130.0	127.0	124.0	121.0	117.0	113.0	109.0	107.0	105.0	104.0	104.0	103.0	104.0	104.0	103.0	103.0	102.0	101.0	99.0	97.0	95.0	93.0	90.0	87.0	84.0	81.0	79.0	77.0	74.0	73.0	71.0	70.0	69.0	68.0	68.0	67.0	67.0	67.0	67.0	67.0	67.0	67.0	68.0	72.0	78.0	88.0	100.0	113.0	125.0	134.0	141.0	144.0	145.0	144.0	141.0	138.0	134.0	129.0	126.0	121.0	117.0	113.0	109.0	106.0	104.0	102.0	101.0	100.0	99.0	99.0	98.0	98.0	98.0	97.0	97.0	96.0	94.0	92.0	89.0	87.0	85.0	83.0	81.0	79.0	78.0	76.0	75.0	74.0	73.0	72.0	72.0	71.0	71.0	70.0	70.0	69.0	68.0	68.0	69.0	72.0	79.0	88.0	100.0	113.0	126.0	136.0	144.0	149.0	150.0	149.0	146.0	142.0	138.0	133.0	128.0	125.0	120.0	115.0	111.0	108.0	105.0	103.0	101.0	100.0	100.0	99.0	99.0	98.0	97.0	97.0	96.0	95.0	93.0	92.0	89.0	87.0	84.0	81.0	78.0	76.0	73.0	71.0	69.0	67.0	65.0	63.0	62.0	61.0	60.0	60.0	60.0	61.0	62.0	63.0	66.0	72.0	80.0	92.0	106.0	121.0	133.0	143.0	150.0	152.0	153.0	151.0	148.0	145.0	141.0	138.0	135.0	131.0	128.0	126.0	123.0	120.0	118.0	116.0	114.0	114.0	113.0	113.0	112.0	112.0	110.0	109.0	107.0	105.0	102.0	100.0	97.0	94.0	91.0	89.0	86.0	84.0	82.0	81.0	80.0	79.0	78.0	77.0	75.0	74.0	72.0	72.0	72.0	75.0	80.0	89.0	100.0	113.0	126.0	136.0	144.0	149.0	150.0	150.0	147.0	143.0	139.0	133.0	128.0	124.0	120.0	116.0	113.0	110.0	109.0	108.0	108.0	108.0	109.0	109.0	109.0	109.0	108.0	107.0	105.0	103.0	101.0	98.0	95.0	92.0	89.0	86.0	83.0	81.0	79.0	77.0	75.0	74.0	72.0	70.0	68.0	66.0	64.0	63.0	62.0	63.0	66.0	71.0	79.0	90.0	103.0	116.0	127.0	135.0	141.0	144.0	144.0	142.0	139.0	136.0	133.0	129.0	127.0	124.0	120.0	116.0	112.0	109.0	107.0	105.0	105.0	104.0	104.0	104.0	103.0	102.0	101.0	99.0	96.0	94.0	91.0	88.0	85.0	82.0	80.0	78.0	77.0	75.0	74.0	72.0	70.0	69.0	67.0	66.0	64.0	63.0	62.0	62.0	65.0	70.0	79.0	91.0	104.0	116.0	127.0	133.0	138.0	139.0	138.0	136.0	132.0	128.0	125.0	121.0	118.0	115.0	113.0	110.0	108.0	106.0	104.0	102.0	101.0	100.0	99.0	99.0	98.0	97.0	96.0	95.0	93.0	90.0	88.0	86.0	83.0	82.0	81.0	80.0	80.0	80.0	79.0	78.0	76.0	74.0	73.0	71.0	69.0	68.0	68.0	69.0	73.0	80.0	90.0	102.0	114.0	126.0	134.0	140.0	143.0	142.0	139.0	134.0	128.0	124.0	118.0	112.0	106.0	101.0	97.0	93.0	90.0	88.0	86.0	84.0	84.0	83.0	83.0	83.0	83.0	83.0	83.0	82.0	81.0	79.0	78.0	77.0	75.0	74.0	72.0	70.0	69.0	68.0	67.0	67.0	67.0	67.0	68.0	68.0	69.0	70.0	73.0	79.0	87.0	96.0	108.0	119.0	129.0	137.0	142.0	144.0	142.0	138.0	133.0	127.0	120.0	114.0	107.0	101.0	95.0	90.0	86.0	83.0	82.0	81.0	82.0	84.0	86.0	89.0	92.0	94.0	95.0	96.0	97.0	96.0	95.0	94.0	91.0	89.0	86.0	83.0	81.0	79.0	77.0	75.0	74.0	73.0	73.0	72.0	71.0	72.0	74.0	80.0	89.0	101.0	115.0	127.0	138.0	146.0	151.0	152.0	151.0	148.0	143.0	138.0	132.0	127.0	122.0	116.0	111.0	106.0	102.0	98.0	95.0	94.0	93.0	94.0	95.0	97.0	99.0	101.0	102.0	103.0	104.0	104.0	103.0	102.0	100.0	98.0	95.0	90.0	86.0	82.0	79.0	76.0	74.0	73.0	71.0	70.0	71.0	76.0	83.0	94.0	106.0	119.0	128.0	136.0	141.0	142.0	140.0	136.0	130.0	125.0	119.0	113.0	108.0	103.0	98.0	95.0	93.0	93.0	94.0	96.0	98.0	100.0	102.0	104.0	107.0	110.0	115.0	121.0	126.0	129.0	133.0	134.0	134.0	133.0	130.0	127.0	125.0	121.0	117.0	113.0	110.0	108.0	108.0	111.0	117.0	126.0	136.0	147.0	157.0	164.0	168.0	168.0	166.0	162.0	157.0	151.0	144.0	138.0	132.0	127.0	122.0	117.0	113.0	109.0	106.0	103.0	101.0	99.0	98.0	97.0	96.0	95.0	94.0	92.0	90.0	89.0	87.0	85.0	84.0	82.0	80.0	78.0	76.0	74.0	73.0	71.0	69.0	68.0	70.0	74.0	82.0	93.0	107.0	121.0	133.0	143.0	149.0	151.0	150.0	147.0	143.0	137.0	132.0	127.0	121.0	115.0	110.0	105.0	101.0	97.0	95.0	93.0	91.0	90.0	90.0	89.0	88.0	88.0	88.0	88.0	88.0	88.0	87.0	85.0	83.0	81.0	78.0	76.0	73.0	71.0	68.0	66.0	64.0	64.0	65.0	68.0	75.0	85.0	97.0	109.0	120.0	128.0	134.0	137.0	137.0	135.0	132.0	127.0	124.0	119.0	114.0	109.0	104.0	99.0	95.0	91.0	87.0	85.0	83.0	82.0	82.0	82.0	82.0	81.0	80.0	78.0	76.0	75.0	73.0	72.0	70.0	68.0	67.0	65.0	64.0	63.0	62.0	61.0	60.0	60.0	61.0	62.0	65.0	70.0	78.0	90.0	103.0	117.0	128.0	137.0	142.0	144.0	143.0	141.0	137.0	133.0	128.0	124.0	119.0	114.0	110.0	105.0	101.0	97.0	93.0	90.0	88.0	86.0	85.0	85.0	85.0	85.0	84.0	83.0	82.0	80.0	78.0	77.0	76.0	74.0	73.0	71.0	69.0	67.0	66.0	64.0	63.0	61.0	60.0	60.0	60.0	62.0	68.0	76.0	89.0	103.0	117.0	129.0	138.0	144.0	146.0	144.0	140.0	136.0	131.0	127.0	123.0	118.0	114.0	110.0	106.0	103.0	100.0	97.0	95.0	93.0	92.0	92.0	92.0	91.0	91.0	90.0	90.0	88.0	87.0	85.0	83.0	81.0	79.0	77.0	75.0	73.0	72.0	70.0	69.0	68.0	67.0	66.0	65.0	64.0	64.0	64.0	66.0	72.0	80.0	92.0	107.0	122.0	134.0	144.0	150.0	152.0	151.0	149.0	145.0	140.0	136.0	131.0	127.0	122.0	118.0	113.0	109.0	105.0	102.0	100.0	99.0	98.0	97.0	97.0	96.0	95.0	94.0	92.0	90.0	88.0	86.0	84.0	82.0	80.0	79.0	77.0	76.0	75.0	74.0	72.0	71.0	69.0	67.0	66.0	64.0	63.0	62.0	62.0	62.0	64.0	68.0	74.0	85.0	98.0	113.0	127.0	140.0	149.0	154.0	155.0	153.0	148.0	142.0	135.0	128.0	123.0	117.0	112.0	108.0	105.0	102.0	100.0	99.0	100.0	101.0	103.0	105.0	106.0	106.0	105.0	103.0	101.0	99.0	96.0	93.0	90.0	87.0	83.0	80.0	78.0	77.0	77.0	76.0	76.0	75.0	73.0	71.0	69.0	67.0	65.0	63.0	61.0	59.0	58.0	58.0	60.0	64.0	71.0	82.0	95.0	110.0	123.0	134.0	142.0	146.0	148.0	146.0	143.0	139.0	135.0	130.0	127.0	122.0	116.0	111.0	106.0	101.0	98.0	96.0	95.0	94.0	94.0	94.0	94.0	93.0	93.0	91.0	90.0	88.0	86.0	83.0	81.0	78.0	75.0	71.0	68.0	65.0	63.0	61.0	60.0	59.0	58.0	57.0	55.0	54.0	52.0	51.0	50.0	50.0	52.0	55.0	62.0	71.0	83.0	96.0	109.0	120.0	127.0	132.0	133.0	133.0	130.0	127.0	123.0	118.0	114.0	109.0	104.0	100.0	96.0	93.0	91.0	91.0	91.0	92.0	94.0	96.0	97.0	98.0	98.0	98.0	97.0	95.0	93.0	90.0	88.0	85.0	83.0	80.0	78.0	75.0	73.0	71.0	70.0	69.0	68.0	67.0	67.0	66.0	66.0	66.0	66.0	67.0	69.0	73.0	81.0	93.0	107.0	122.0	136.0	148.0	157.0	163.0	165.0	164.0	160.0	155.0	149.0	143.0	138.0	133.0	129.0	125.0	121.0	117.0	113.0	111.0	109.0	108.0	108.0	109.0	109.0	109.0	109.0	108.0	107.0	105.0	103.0	100.0	98.0	95.0	94.0	92.0	91.0	89.0	87.0	84.0	82.0	80.0	78.0	76.0	74.0	72.0	70.0	68.0	67.0	66.0	67.0	72.0	80.0	91.0	105.0	121.0	133.0	145.0	152.0	156.0	156.0	154.0	150.0	145.0	140.0	134.0	129.0	125.0	120.0	115.0	110.0	106.0	103.0	101.0	100.0	100.0	100.0	100.0	101.0	101.0	101.0	100.0	98.0	95.0	93.0	90.0	88.0	85.0	83.0	80.0	78.0	76.0	73.0	72.0	70.0	69.0	68.0	67.0	66.0	66.0	66.0	65.0	64.0	64.0	66.0	70.0	77.0	87.0	100.0	115.0	128.0	140.0	149.0	153.0	154.0	152.0	148.0	142.0	137.0	131.0	127.0	122.0	117.0	113.0	108.0	105.0	101.0	99.0	98.0	98.0	98.0	99.0	100.0	100.0	101.0	101.0	100.0	99.0	98.0	96.0	94.0	92.0	90.0	88.0	85.0	83.0	80.0	77.0	74.0	72.0	70.0	68.0	67.0	66.0	64.0	63.0	61.0	60.0	61.0	65.0	73.0	85.0	100.0	116.0	129.0	141.0	149.0	153.0	152.0	149.0	144.0	138.0	132.0	127.0	123.0	118.0	114.0	110.0	107.0	104.0	102.0	100.0	99.0	99.0	99.0	99.0	99.0	100.0	101.0	102.0	102.0	102.0	101.0	100.0	97.0	95.0	92.0	89.0	87.0	85.0	82.0	81.0	79.0	78.0	77.0	76.0	75.0	74.0	73.0	72.0	72.0	72.0	75.0	81.0	91.0	104.0	119.0	133.0	147.0	156.0	162.0	164.0	163.0	159.0	153.0	145.0	136.0	127.0	120.0	114.0	109.0	105.0	102.0	99.0	95.0	92.0	88.0	84.0	81.0	79.0	78.0	79.0	81.0	83.0	86.0	89.0	91.0	93.0	93.0	92.0	90.0	87.0	84.0	81.0	80.0	78.0	78.0	77.0	75.0	73.0	70.0	67.0	64.0	62.0	60.0	61.0	64.0	72.0	84.0	98.0	113.0	126.0	135.0	141.0	143.0	142.0	139.0	135.0	130.0	126.0	120.0	115.0	110.0	105.0	101.0	96.0	92.0	89.0	87.0	86.0	86.0	87.0	88.0	88.0	88.0	88.0	88.0	88.0	89.0	91.0	93.0	95.0	97.0	97.0	96.0	93.0	91.0	88.0	86.0	84.0	82.0	80.0	78.0	75.0	72.0	71.0	73.0	78.0	85.0	96.0	108.0	121.0	131.0	140.0	146.0	148.0	148.0	146.0	143.0	139.0	134.0	130.0	126.0	121.0	115.0	109.0	103.0	97.0	93.0	91.0	89.0	89.0	89.0	90.0	90.0	91.0	91.0	92.0	91.0	91.0	90.0	90.0	89.0	87.0	86.0	84.0	82.0	80.0	78.0	76.0	74.0	72.0	71.0	69.0	66.0	64.0	63.0	64.0	68.0	77.0	89.0	105.0	121.0	135.0	146.0	154.0	157.0	157.0	154.0	150.0	145.0	140.0	134.0	128.0	124.0	118.0	113.0	109.0	104.0	100.0	96.0	93.0	92.0	91.0	92.0	94.0	96.0	98.0	99.0	100.0	100.0	98.0	96.0	93.0	90.0	87.0	85.0	83.0	81.0	79.0	77.0	76.0	74.0	73.0	71.0	71.0	71.0	74.0	79.0	88.0	99.0	113.0	126.0	137.0	147.0	153.0	156.0	156.0	155.0	151.0	147.0	141.0	135.0	129.0	123.0	116.0	109.0	102.0	96.0	92.0	89.0	88.0	88.0	89.0	90.0	91.0	92.0	92.0	92.0	92.0	91.0	90.0	88.0	87.0	85.0	83.0	82.0	80.0	79.0	78.0	76.0	74.0	72.0	69.0	68.0	68.0	71.0	78.0	88.0	100.0	115.0	128.0	140.0	148.0	154.0	156.0	155.0	152.0	149.0	144.0	139.0	134.0	127.0	122.0	115.0	109.0	103.0	99.0	96.0	95.0	95.0	96.0	97.0	98.0	99.0	100.0	100.0	100.0	99.0	97.0	95.0	92.0	89.0	86.0	83.0	81.0	79.0	77.0	75.0	73.0	72.0	71.0	71.0	71.0	74.0	80.0	89.0	100.0	114.0	127.0	138.0	146.0	151.0	153.0	152.0	148.0	142.0	136.0	130.0	125.0	120.0	115.0	111.0	107.0	104.0	100.0	97.0	95.0	94.0	93.0	93.0	93.0	94.0	94.0	94.0	94.0	93.0	92.0	90.0	89.0	87.0	85.0	84.0	83.0	82.0	81.0	80.0	78.0	76.0	74.0	73.0	73.0	75.0	80.0	89.0	101.0	116.0	129.0	142.0	152.0	157.0	160.0	158.0	155.0	150.0	144.0	138.0	132.0	126.0	120.0	113.0	108.0	102.0	98.0	94.0	91.0	89.0	88.0	87.0	86.0	86.0	85.0	85.0	84.0	84.0	83.0	82.0	80.0	79.0	77.0	75.0	74.0	73.0	72.0	71.0	70.0	69.0	68.0	68.0	68.0	70.0	75.0	84.0	96.0	109.0	123.0	134.0	144.0	150.0	152.0	151.0	148.0	144.0	139.0	133.0	128.0	124.0	118.0	113.0	109.0	105.0	101.0	99.0	97.0	97.0	96.0	96.0	97.0	97.0	97.0	96.0	95.0	94.0	92.0	90.0	88.0	86.0	85.0	83.0	82.0	81.0	80.0	79.0	78.0	76.0	74.0	72.0	71.0	71.0	75.0	82.0	93.0	106.0	120.0	132.0	142.0	149.0	152.0	152.0	150.0	145.0	140.0	133.0	127.0	122.0	115.0	110.0	104.0	100.0	96.0	94.0	92.0	92.0	93.0	94.0	95.0	96.0	97.0	98.0	99.0	100.0	101.0	102.0	102.0	102.0	101.0	99.0	96.0	93.0	90.0	88.0	85.0	83.0	81.0	80.0	81.0	84.0	91.0	100.0	113.0	125.0	136.0	145.0	150.0	152.0	151.0	147.0	142.0	135.0	128.0	122.0	115.0	109.0	103.0	98.0	94.0	91.0	89.0	89.0	89.0	90.0	91.0	92.0	93.0	93.0	92.0	90.0	87.0	85.0	81.0	78.0	75.0	72.0	69.0	67.0	65.0	64.0	63.0	62.0	61.0	60.0	62.0	65.0	73.0	84.0	98.0	114.0	129.0	142.0	151.0	156.0	157.0	155.0	151.0	146.0	140.0	135.0	129.0	125.0	119.0	114.0	109.0	105.0	102.0	99.0	97.0	96.0	96.0	96.0	96.0	96.0	96.0	95.0	94.0	92.0	90.0	88.0	85.0	82.0	79.0	77.0	74.0	72.0	70.0	68.0	66.0	64.0	64.0	64.0	67.0	72.0	82.0	94.0	109.0	124.0	136.0	146.0	152.0	155.0	155.0	152.0	148.0	144.0	139.0	134.0	129.0	125.0	120.0	115.0	110.0	106.0	102.0	99.0	97.0	96.0	95.0	94.0	93.0	92.0	91.0	90.0	89.0	87.0	84.0	81.0	78.0	76.0	73.0	70.0	68.0	66.0	64.0	62.0	60.0	58.0	57.0	55.0	56.0	58.0	63.0	72.0	85.0	99.0	115.0	127.0	138.0	144.0	147.0	147.0	144.0	141.0	136.0	132.0	127.0	122.0	117.0	111.0	105.0	100.0	96.0	93.0	90.0	89.0	88.0	87.0	86.0	86.0	85.0	84.0	82.0	81.0	79.0	77.0	74.0	72.0	70.0	68.0	66.0	64.0	62.0	61.0	60.0	59.0	58.0	58.0	57.0	57.0	57.0	57.0	58.0	58.0	60.0	65.0	74.0	85.0	100.0	115.0	127.0	138.0	145.0	148.0	148.0	146.0	143.0	139.0	136.0	132.0	129.0	126.0	122.0	117.0	113.0	110.0	107.0	105.0	104.0	103.0	103.0	103.0	102.0	101.0	99.0	97.0	94.0	92.0	89.0	87.0	85.0	82.0	80.0	77.0	75.0	73.0	72.0	72.0	71.0	71.0	71.0	71.0	70.0	69.0	68.0	67.0	66.0	65.0	65.0	67.0	73.0	81.0	93.0	107.0	121.0	134.0	144.0	151.0	154.0	154.0	151.0	147.0	142.0	137.0	132.0	127.0	122.0	117.0	113.0	109.0	106.0	103.0	101.0	100.0	99.0	99.0	99.0	99.0	99.0	99.0	98.0	96.0	93.0	91.0	87.0	84.0	81.0	77.0	74.0	71.0	68.0	66.0	64.0	62.0	60.0	59.0	58.0	58.0	57.0	58.0	58.0	59.0	60.0	61.0	65.0	71.0	81.0	95.0	110.0	124.0	136.0	145.0	150.0	151.0	149.0	144.0	139.0	133.0	128.0	123.0	118.0	113.0	108.0	103.0	99.0	96.0	94.0	93.0	92.0	92.0	93.0	93.0	94.0	94.0	93.0	92.0	91.0	89.0	87.0	85.0	83.0	81.0	79.0	77.0	76.0	74.0	73.0	72.0	71.0	70.0	69.0	68.0	67.0	67.0	65.0	64.0	63.0	63.0	63.0	66.0	71.0	81.0	93.0	109.0	124.0	137.0	147.0	153.0	155.0	153.0	149.0	143.0	137.0	130.0	125.0	119.0	113.0	108.0	103.0	98.0	95.0	92.0	90.0	89.0	89.0	89.0	89.0	89.0	88.0	88.0	87.0	86.0	85.0	83.0	81.0	78.0	76.0	74.0	72.0	71.0	69.0	68.0	68.0	68.0	68.0	68.0	69.0	69.0	70.0	70.0	70.0	70.0	71.0	71.0	72.0	75.0	82.0	91.0	104.0	118.0	131.0	143.0	151.0	156.0	157.0	155.0	151.0	146.0	140.0	133.0	127.0	121.0	114.0	109.0	104.0	101.0	98.0	97.0	97.0	97.0	98.0	99.0	100.0	100.0	99.0	98.0	96.0	94.0	92.0	90.0	87.0	84.0	81.0	78.0	76.0	74.0	72.0	70.0	69.0	68.0	67.0	67.0	66.0	66.0	66.0	65.0	66.0	68.0	73.0	82.0	95.0	111.0	127.0	143.0	156.0	165.0	169.0	169.0	166.0	161.0	155.0	148.0	142.0	136.0	130.0	125.0	120.0	115.0	111.0	107.0	104.0	102.0	101.0	100.0	100.0	101.0	101.0	101.0	100.0	99.0	98.0	96.0	94.0	91.0	89.0	87.0	84.0	82.0	80.0	78.0	76.0	74.0	73.0	72.0	71.0	69.0	68.0	67.0	66.0	66.0	68.0	73.0	81.0	94.0	110.0	127.0	142.0	155.0	164.0	168.0	168.0	165.0	160.0	154.0	147.0	140.0	134.0	128.0	123.0	118.0	113.0	108.0	104.0	102.0	100.0	99.0	98.0	98.0	98.0	98.0	98.0	97.0	96.0	94.0	92.0	90.0	87.0	85.0	82.0	79.0	77.0	75.0	73.0	72.0	71.0	70.0	68.0	67.0	66.0	65.0	65.0	64.0	65.0	67.0	72.0	81.0	94.0	109.0	125.0	139.0	150.0	158.0	161.0	160.0	157.0	152.0	145.0	139.0	132.0	127.0	121.0	115.0	110.0	105.0	101.0	98.0	96.0	95.0	95.0	96.0	96.0	97.0	97.0	97.0	96.0	94.0	93.0	91.0	89.0	87.0	84.0	82.0	80.0	78.0	76.0	74.0	73.0	71.0	69.0	68.0	66.0	65.0	64.0	64.0	64.0	66.0	70.0	77.0	87.0	101.0	116.0	130.0	143.0	152.0	156.0	157.0	155.0	151.0	145.0	140.0	134.0	129.0	125.0	120.0	115.0	110.0	106.0	103.0	101.0	100.0	99.0	99.0	98.0	98.0	98.0	97.0	96.0	95.0	94.0	93.0	91.0	89.0	86.0	84.0	81.0	79.0	77.0	75.0	73.0	72.0	71.0	71.0	70.0	70.0	69.0	68.0	68.0	70.0	74.0	81.0	92.0	105.0	120.0	133.0	144.0	151.0	155.0	155.0	152.0	148.0	142.0	136.0	130.0	125.0	119.0	114.0	109.0	105.0	101.0	99.0	98.0	97.0	97.0	97.0	98.0	98.0	98.0	98.0	97.0	96.0	94.0	92.0	90.0	87.0	85.0	83.0	80.0	77.0	75.0	73.0	72.0	70.0	69.0	68.0	66.0	65.0	64.0	64.0	65.0	69.0	77.0	88.0	102.0	117.0	130.0	141.0	149.0	152.0	152.0	150.0	146.0	140.0	135.0	129.0	124.0	119.0	113.0	108.0	104.0	101.0	98.0	97.0	96.0	96.0	96.0	97.0	97.0	97.0	97.0	96.0	95.0	93.0	91.0	88.0	86.0	83.0	81.0	79.0	76.0	74.0	72.0	71.0	69.0	68.0	67.0	66.0	65.0	64.0	63.0	64.0	66.0	72.0	81.0	93.0	108.0	123.0	135.0	146.0	152.0	155.0	154.0	150.0	146.0	140.0	134.0	128.0	123.0	118.0	113.0	108.0	104.0	101.0	99.0	97.0	97.0	91.0	105.0	120.0	133.0	144.0	151.0	154.0	154.0	152.0	148.0	142.0	137.0	131.0	126.0	121.0	116.0	111.0	107.0	103.0	101.0	99.0	98.0	98.0	98.0	98.0	98.0	98.0	98.0	97.0	95.0	93.0	90.0	88.0	85.0	83.0	81.0	78.0	76.0	74.0	72.0	71.0	69.0	68.0	67.0	66.0	65.0	64.0	63.0	63.0	63.0	64.0	67.0	74.0	84.0	97.0	112.0	126.0	138.0	147.0	152.0	154.0	152.0	149.0	144.0	138.0	132.0	127.0	122.0	117.0	113.0	108.0	104.0	101.0	99.0	98.0	97.0	98.0	98.0	98.0	98.0	98.0	97.0	95.0	94.0	92.0	89.0	87.0	84.0	82.0	80.0	77.0	75.0	73.0	72.0	70.0	69.0	68.0	67.0	66.0	65.0	64.0	64.0	63.0	63.0	63.0	65.0	69.0	75.0	86.0	99.0	114.0	128.0	141.0	149.0	154.0	155.0	153.0	150.0	145.0	139.0	134.0	129.0	125.0	120.0	115.0	111.0	108.0	105.0	102.0	101.0	101.0	101.0	101.0	101.0	101.0	101.0	100.0	98.0	96.0	94.0	91.0	89.0	86.0	84.0	81.0	79.0	77.0	75.0	73.0	71.0	69.0	67.0	66.0	65.0	65.0	64.0	64.0	63.0	62.0	61.0	62.0	64.0	70.0	80.0	93.0	108.0	123.0	136.0	146.0	152.0	155.0	154.0	151.0	146.0	141.0	136.0	130.0	126.0	121.0	117.0	112.0	108.0	104.0	102.0	101.0	101.0	101.0	102.0	103.0	104.0	104.0	103.0	102.0	99.0	97.0	94.0	90.0	87.0	84.0	81.0	79.0	76.0	75.0	73.0	71.0	70.0	69.0	68.0	67.0	66.0	66.0	65.0	64.0	64.0	64.0	65.0	68.0	74.0	84.0	97.0	112.0	127.0	139.0	149.0	156.0	158.0	158.0	155.0	150.0	145.0	139.0	134.0	128.0	124.0	119.0	115.0	110.0	107.0	104.0	103.0	102.0	102.0	102.0	103.0	103.0	103.0	102.0	101.0	99.0	97.0	94.0	92.0	89.0	86.0	83.0	81.0	79.0	77.0	75.0	74.0	73.0	71.0	70.0	69.0	68.0	68.0	67.0	66.0	66.0	66.0	69.0	74.0	83.0	95.0	110.0	124.0	137.0	147.0	153.0	156.0	156.0	153.0	148.0	143.0	137.0	132.0	127.0	123.0	118.0	113.0	109.0	105.0	102.0	100.0	99.0	99.0	99.0	100.0	100.0	100.0	100.0	99.0	98.0	96.0	94.0	92.0	89.0	87.0	84.0	82.0	79.0	77.0	75.0	74.0	72.0	71.0	70.0	69.0	68.0	67.0	66.0	65.0	64.0	65.0	67.0	72.0	80.0	92.0	106.0	120.0	133.0	144.0	151.0	154.0	154.0	151.0	146.0	141.0	135.0	129.0	125.0	119.0	115.0	111.0	107.0	104.0	102.0	101.0	101.0	101.0	101.0	102.0	102.0	102.0	102.0	101.0	99.0	97.0	95.0	93.0	90.0	87.0	84.0	81.0	78.0	76.0	75.0	73.0	72.0	71.0	70.0	69.0	68.0	67.0	66.0	66.0	66.0	69.0	74.0	83.0	95.0	109.0	124.0	137.0	149.0	156.0	160.0	160.0	157.0	152.0	146.0	140.0	134.0	128.0	123.0	117.0	112.0	107.0	103.0	100.0	98.0	97.0	97.0	97.0	97.0	97.0	97.0	97.0	96.0	94.0	92.0	90.0	88.0	85.0	83.0	81.0	79.0	77.0	75.0	74.0	72.0	71.0	70.0	69.0	69.0	68.0	68.0	68.0	68.0	68.0	71.0	75.0	84.0	95.0	109.0	124.0	137.0	148.0	155.0	157.0	157.0	153.0	148.0	143.0	137.0	131.0	127.0	122.0	116.0	111.0	107.0	103.0	99.0	98.0	97.0	97.0	97.0	98.0	99.0	99.0	99.0	97.0	95.0	93.0	90.0	88.0	85.0	83.0	81.0	79.0	77.0	76.0	74.0	73.0	71.0	70.0	68.0	67.0	66.0	64.0	64.0	63.0	63.0	65.0	70.0	77.0	88.0	101.0	116.0	129.0	141.0	149.0	153.0	154.0	152.0	148.0	143.0	138.0	132.0	127.0	123.0	118.0	114.0	110.0	107.0	106.0	105.0	107.0	108.0	110.0	112.0	113.0	114.0	114.0	113.0	111.0	109.0	105.0	101.0	97.0	93.0	90.0	87.0	84.0	82.0	80.0	78.0	77.0	76.0	75.0	74.0	73.0	73.0	75.0	79.0	86.0	96.0	109.0	124.0	136.0	148.0	156.0	160.0	161.0	159.0	155.0	150.0	144.0	139.0	133.0	127.0	122.0	117.0	113.0	109.0	106.0	104.0	103.0	102.0	102.0	102.0	102.0	101.0	99.0	96.0	93.0	90.0	86.0	83.0	80.0	77.0	74.0	72.0	70.0	68.0	67.0	65.0	64.0	63.0	62.0	62.0	61.0	61.0	63.0	68.0	76.0	88.0	103.0	119.0	134.0	146.0	155.0	159.0	160.0	158.0	153.0	148.0	143.0	138.0	134.0	129.0	125.0	120.0	115.0	110.0	106.0	102.0	100.0	99.0	99.0	99.0	99.0	100.0	100.0	99.0	98.0	96.0	94.0	91.0	88.0	85.0	82.0	78.0	75.0	72.0	70.0	67.0	65.0	63.0	61.0	59.0	58.0	56.0	56.0	56.0	58.0	63.0	72.0	84.0	100.0	116.0	131.0	143.0	151.0	155.0	155.0	152.0	147.0	142.0	137.0	131.0	126.0	121.0	115.0	109.0	104.0	99.0	95.0	92.0	90.0	89.0	88.0	87.0	86.0	85.0	84.0	82.0	79.0	76.0	73.0	70.0	67.0	65.0	63.0	60.0	58.0	56.0	54.0	52.0	51.0	50.0	50.0	50.0	50.0	50.0	49.0	49.0	48.0	48.0	49.0	54.0	62.0	73.0	88.0	105.0	121.0	133.0	143.0	149.0	150.0	149.0	145.0	139.0	133.0	127.0	122.0	117.0	111.0	106.0	101.0	97.0	94.0	91.0	90.0	90.0	91.0	91.0	91.0	91.0	90.0	89.0	88.0	86.0	84.0	81.0	79.0	76.0	73.0	71.0	68.0	66.0	65.0	63.0	61.0	60.0	59.0	58.0	57.0	57.0	57.0	57.0	58.0	59.0	61.0	64.0	71.0	81.0	94.0	109.0	126.0	140.0	153.0	161.0	165.0	165.0	162.0	156.0	150.0	143.0	136.0	130.0	124.0	118.0	112.0	107.0	103.0	101.0	99.0	98.0	98.0	99.0	99.0	99.0	99.0	99.0	97.0	95.0	93.0	90.0	87.0	84.0	81.0	79.0	77.0	76.0	75.0	74.0	73.0	73.0	74.0	75.0	77.0	78.0	78.0	77.0	76.0	75.0	75.0	78.0	84.0	94.0	107.0	122.0	137.0	151.0	162.0	168.0	169.0	167.0	162.0	156.0	148.0	140.0	132.0	125.0	117.0	110.0	104.0	100.0	97.0	96.0	97.0	99.0	101.0	103.0	105.0	105.0	105.0	103.0	101.0	99.0	97.0	95.0	92.0	90.0	87.0	85.0	83.0	81.0	80.0	78.0	77.0	76.0	75.0	74.0	73.0	72.0	71.0	70.0	70.0	73.0	78.0	87.0	100.0	117.0	135.0	153.0	168.0	179.0	186.0	187.0	184.0	179.0	171.0	163.0	154.0	146.0	139.0	132.0	126.0	119.0	113.0	107.0	103.0	99.0	96.0	94.0	93.0	93.0	93.0	94.0	94.0	94.0	93.0	92.0	90.0	87.0	84.0	81.0	78.0	75.0	73.0	71.0	70.0	68.0	67.0	65.0	64.0	62.0	61.0	59.0	57.0	57.0	58.0	63.0	71.0	85.0	102.0	122.0	140.0	156.0	168.0	173.0	174.0	170.0	164.0	156.0	148.0	140.0	132.0	125.0	117.0	110.0	103.0	96.0	91.0	87.0	84.0	83.0	83.0	84.0	85.0	86.0	86.0	86.0	86.0	84.0	82.0	80.0	77.0	75.0	73.0	72.0	70.0	69.0	67.0	65.0	63.0	62.0	61.0	60.0	60.0	59.0	59.0	60.0	64.0	70.0	81.0	96.0	114.0	131.0	147.0	159.0	166.0	168.0	165.0	160.0	152.0	144.0	135.0	127.0	121.0	113.0	106.0	100.0	94.0	90.0	88.0	87.0	86.0	87.0	88.0	90.0	91.0	92.0	92.0	91.0	90.0	88.0	87.0	85.0	84.0	82.0	81.0	79.0	76.0	73.0	70.0	67.0	65.0	62.0	61.0	60.0	60.0	61.0	64.0	71.0	82.0	96.0	113.0	130.0	146.0	158.0	165.0	168.0	167.0	162.0	155.0	148.0	140.0	132.0	125.0	117.0	111.0	106.0	102.0	99.0	97.0	96.0	96.0	97.0	99.0	102.0	103.0	104.0	102.0	99.0	95.0	91.0	88.0	84.0	82.0	80.0	78.0	76.0	74.0	72.0	70.0	69.0	67.0	66.0	64.0	63.0	62.0	63.0	67.0	76.0	88.0	104.0	120.0	134.0	146.0	153.0	155.0	154.0	150.0	144.0	138.0	132.0	128.0	125.0	121.0	117.0	114.0	109.0	102.0	94.0	87.0	79.0	72.0	66.0	59.0	51.0	43.0	34.0	25.0	17.0	10.0	4.0	0.0	0.0	0.0	0.0	0.0	0.0	0.0	0.0	0.0	0.0	0.0	0.0	0.0	0.0	0.0	0.0	0.0	0.0	7.0	22.0	37.0	51.0	61.0	68.0	70.0	68.0	65.0	60.0	55.0	51.0	46.0	43.0	40.0	39.0	39.0	42.0	47.0	53.0	61.0	68.0	75.0	81.0	85.0	89.0	91.0	93.0	94.0	94.0	95.0	95.0	94.0	94.0	93.0	93.0	92.0	91.0	90.0	90.0	91.0	94.0	101.0	111.0	125.0	141.0	158.0	175.0	188.0	197.0	202.0	202.0	199.0	194.0	188.0	180.0	173.0	165.0	158.0	151.0	145.0	139.0	134.0	131.0	129.0	128.0	129.0	130.0	131.0	132.0	131.0	131.0	129.0	127.0	125.0	122.0	120.0	117.0	115.0	113.0	109.0	105.0	102.0	97.0	93.0	89.0	86.0	84.0	85.0	91.0	103.0	119.0	138.0	158.0	176.0	190.0	199.0	203.0	203.0	198.0	192.0	184.0	176.0	167.0	159.0	151.0	144.0	137.0	132.0	127.0	124.0	122.0	121.0	121.0	121.0	121.0	121.0	120.0	119.0	116.0	113.0	108.0	103.0	99.0	94.0	90.0	86.0	82.0	79.0	76.0	72.0	69.0	66.0	64.0	63.0	65.0	72.0	83.0	98.0	117.0	134.0	151.0	164.0	171.0	174.0	172.0	168.0	161.0	154.0	146.0	138.0	130.0	123.0	115.0	108.0	102.0	97.0	94.0	92.0	91.0	91.0	91.0	91.0	91.0	90.0	88.0	86.0	83.0	80.0	76.0	73.0	70.0	67.0	64.0	61.0	59.0	57.0	55.0	53.0	51.0	50.0	49.0	49.0	51.0	57.0	68.0	83.0	101.0	121.0	137.0	151.0	160.0	163.0	161.0	156.0	149.0	141.0	132.0	126.0	118.0	111.0	106.0	101.0	98.0	96.0	96.0	97.0	98.0	100.0	102.0	104.0	104.0	104.0	103.0	102.0	99.0	97.0	94.0	90.0	87.0	84.0	81.0	78.0	75.0	73.0	70.0	68.0	66.0	64.0	63.0	62.0	62.0	66.0	73.0	84.0	100.0	118.0	135.0	152.0	164.0	171.0	173.0	171.0	165.0	158.0	149.0	140.0	131.0	123.0	115.0	107.0	101.0	96.0	93.0	91.0	90.0	91.0	92.0	93.0	93.0	93.0	92.0	90.0	88.0	86.0	83.0	80.0	76.0	73.0	70.0	67.0	65.0	62.0	60.0	58.0	56.0	55.0	53.0	52.0	51.0	51.0	52.0	56.0	64.0	77.0	95.0	115.0	134.0	152.0	166.0	174.0	178.0	177.0	172.0	166.0	158.0	149.0	140.0	132.0	124.0	117.0	110.0	104.0	99.0	96.0	95.0	94.0	95.0	96.0	97.0	97.0	96.0	95.0	93.0	90.0	87.0	84.0	81.0	77.0	74.0	71.0	68.0	65.0	63.0	61.0	60.0	58.0	57.0	56.0	54.0	53.0	52.0	51.0	50.0	52.0	57.0	66.0	80.0	98.0	118.0	136.0	152.0	164.0	171.0	173.0	170.0	164.0	156.0	148.0	138.0	129.0	122.0	114.0	107.0	101.0	97.0	95.0	94.0	96.0	98.0	101.0	103.0	105.0	106.0	106.0	105.0	103.0	101.0	98.0	95.0	91.0	88.0	84.0	81.0	78.0	76.0	74.0	72.0	70.0	68.0	67.0	65.0	64.0	65.0	69.0	78.0	90.0	107.0	126.0	144.0	160.0	172.0	178.0	180.0	178.0	172.0	165.0	156.0	146.0	136.0	127.0	118.0	110.0	103.0	97.0	93.0	91.0	90.0	90.0	90.0	91.0	92.0	92.0	91.0	90.0	88.0	87.0	85.0	82.0	79.0	76.0	73.0	70.0	67.0	64.0	62.0	60.0	57.0	55.0	53.0	51.0	50.0	50.0	54.0	62.0	75.0	94.0	116.0	139.0	160.0	178.0	189.0	195.0	195.0	191.0	183.0	175.0	165.0	156.0	147.0	139.0	131.0	124.0	118.0	112.0	107.0	103.0	101.0	99.0	98.0	98.0	97.0	96.0	95.0	93.0	91.0	88.0	84.0	81.0	77.0	72.0	68.0	65.0	62.0	59.0	57.0	55.0	53.0	51.0	49.0	48.0	46.0	45.0	46.0	50.0	58.0	72.0	91.0	113.0	134.0	154.0	169.0	179.0	183.0	182.0	177.0	171.0	163.0	155.0	147.0	139.0	132.0	125.0	118.0	111.0	105.0	101.0	97.0	95.0	93.0	93.0	93.0	93.0	93.0	92.0	90.0	87.0	84.0	81.0	78.0	74.0	70.0	67.0	64.0	61.0	58.0	56.0	54.0	52.0	51.0	49.0	48.0	47.0	46.0	45.0	46.0	50.0	59.0	72.0	91.0	112.0	133.0	152.0	167.0	176.0	180.0	179.0	175.0	168.0	160.0	151.0	143.0	135.0	127.0	120.0	113.0	107.0	102.0	97.0	95.0	93.0	92.0	92.0	92.0	92.0	92.0	91.0	89.0	87.0	84.0	80.0	77.0	73.0	70.0	67.0	64.0	62.0	61.0	59.0	58.0	56.0	55.0	53.0	52.0	51.0	50.0	49.0	50.0	53.0	59.0	70.0	87.0	107.0	127.0	147.0	164.0	175.0	181.0	181.0	178.0	171.0	163.0	155.0	147.0	138.0	131.0	124.0	117.0	110.0	105.0	101.0	98.0	97.0	96.0	96.0	96.0	96.0	96.0	95.0	93.0	91.0	88.0	85.0	81.0	78.0	74.0	70.0	67.0	64.0	62.0	60.0	58.0	57.0	55.0	54.0	54.0	53.0	52.0	51.0	51.0	51.0	52.0	55.0	62.0	75.0	92.0	113.0	133.0	153.0	168.0	179.0	183.0	183.0	179.0	173.0	165.0	156.0	147.0	139.0	130.0	124.0	116.0	110.0	105.0	102.0	100.0	99.0	99.0	99.0	100.0	100.0	100.0	99.0	97.0	95.0	92.0	88.0	84.0	80.0	76.0	72.0	68.0	65.0	62.0	59.0	57.0	55.0	54.0	53.0	52.0	51.0	50.0	49.0	49.0	48.0	47.0	48.0	50.0	56.0	67.0	83.0	103.0	125.0	145.0	162.0	174.0	180.0	181.0	178.0	172.0	164.0	155.0	146.0	138.0	130.0	123.0	115.0	109.0	104.0	100.0	97.0	96.0	96.0	96.0	97.0	98.0	99.0	98.0	97.0	95.0	93.0	89.0	85.0	81.0	78.0	74.0	70.0	67.0	63.0	61.0	58.0	56.0	55.0	54.0	54.0	53.0	52.0	52.0	51.0	51.0	51.0	51.0	53.0	58.0	67.0	82.0	101.0	122.0	143.0	162.0	175.0	184.0	186.0	184.0	178.0	170.0	161.0	152.0	143.0	134.0	127.0	119.0	112.0	106.0	101.0	98.0	96.0	96.0	96.0	98.0	99.0	99.0	99.0	98.0	96.0	93.0	90.0	87.0	83.0	80.0	76.0	72.0	69.0	67.0	64.0	62.0	61.0	59.0	58.0	57.0	56.0	55.0	55.0	54.0	54.0	54.0	54.0	55.0	59.0	67.0	81.0	99.0	120.0	141.0	160.0	175.0	184.0	188.0	186.0	181.0	173.0	165.0	155.0	146.0	137.0	129.0	122.0	115.0	108.0	104.0	101.0	99.0	99.0	99.0	100.0	101.0	102.0	102.0	102.0	100.0	98.0	96.0	93.0	90.0	87.0	83.0	80.0	77.0	74.0	71.0	68.0	66.0	63.0	61.0	60.0	58.0	57.0	56.0	55.0	54.0	53.0	54.0	57.0	64.0	77.0	93.0	113.0	133.0	151.0	165.0	174.0	177.0	176.0	172.0	165.0	157.0	148.0	139.0	130.0	122.0	114.0	107.0	101.0	97.0	94.0	93.0	93.0	94.0	95.0	97.0	98.0	98.0	97.0	96.0	94.0	91.0	87.0	83.0	79.0	76.0	72.0	69.0	66.0	64.0	62.0	60.0	59.0	58.0	57.0	57.0	56.0	55.0	55.0	54.0	53.0	54.0	55.0	61.0	71.0	86.0	106.0	128.0	150.0	169.0	183.0	192.0	195.0	193.0	187.0	180.0	171.0	162.0	153.0	144.0	136.0	128.0	122.0	115.0	110.0	106.0	104.0	103.0	103.0	103.0	104.0	104.0	104.0	103.0	101.0	98.0	95.0	92.0	88.0	84.0	79.0	76.0	72.0	69.0	67.0	65.0	63.0	61.0	59.0	58.0	57.0	56.0	56.0	55.0	54.0	54.0	54.0	58.0	65.0	77.0	94.0	115.0	136.0	156.0	173.0	184.0	189.0	189.0	185.0	178.0	170.0	161.0	152.0	144.0	135.0	127.0	120.0	113.0	107.0	102.0	99.0	98.0	97.0	97.0	98.0	99.0	99.0	99.0	97.0	96.0	93.0	90.0	86.0	82.0	78.0	74.0	70.0	67.0	64.0	61.0	59.0	57.0	56.0	55.0	54.0	53.0	52.0	51.0	51.0	50.0	51.0	54.0	60.0	72.0	89.0	109.0	130.0	151.0	169.0	181.0	187.0	188.0	185.0	178.0	170.0	161.0	152.0	142.0	133.0	126.0	118.0	110.0	104.0	99.0	96.0	95.0	95.0	95.0	96.0	97.0	97.0	97.0	96.0	94.0	92.0	89.0	85.0	82.0	78.0	74.0	71.0	68.0	65.0	62.0	60.0	57.0	56.0	54.0	53.0	51.0	50.0	49.0	48.0	47.0	47.0	49.0	54.0	63.0	78.0	98.0	120.0	141.0	161.0	176.0	186.0	190.0	190.0	185.0	179.0	170.0	161.0	152.0	143.0	135.0	127.0	120.0	113.0	107.0	102.0	99.0	97.0	97.0	96.0	97.0	97.0	97.0	96.0	95.0	92.0	89.0	86.0	82.0	79.0	75.0	72.0	70.0	67.0	66.0	64.0	63.0	62.0	61.0	61.0	60.0	60.0	59.0	59.0	58.0	58.0	60.0	65.0	75.0	90.0	109.0	128.0	147.0	163.0	174.0	179.0	179.0	175.0	167.0	158.0	147.0	137.0	127.0	117.0	108.0	100.0	93.0	88.0	86.0	85.0	86.0	89.0	93.0	97.0	100.0	102.0	103.0	103.0	102.0	99.0	96.0	93.0	89.0	85.0	82.0	78.0	75.0	71.0	69.0	67.0	65.0	63.0	62.0	62.0	61.0	61.0	62.0	66.0	73.0	84.0	100.0	118.0	136.0	152.0	165.0	173.0	175.0	174.0	169.0	161.0	152.0	142.0	132.0	124.0	115.0	106.0	99.0	94.0	90.0	88.0	88.0	88.0	90.0	91.0	92.0	93.0	92.0	90.0	88.0	85.0	82.0	78.0	75.0	71.0	68.0	65.0	62.0	59.0	57.0	54.0	53.0	51.0	49.0	48.0	47.0	47.0	48.0	53.0	62.0	77.0	97.0	120.0	142.0	163.0	180.0	190.0	195.0	194.0	190.0	183.0	174.0	165.0	157.0	148.0	140.0	132.0	126.0	119.0	113.0	108.0	104.0	101.0	100.0	99.0	98.0	97.0	95.0	94.0	92.0	89.0	87.0	84.0	81.0	77.0	73.0	70.0	66.0	63.0	60.0	58.0	55.0	53.0	51.0	49.0	48.0	47.0	49.0	53.0	61.0	74.0	92.0	114.0	137.0	160.0	179.0	193.0	201.0	203.0	201.0	195.0	187.0	177.0	166.0	155.0	145.0	135.0	127.0	119.0	112.0	106.0	102.0	99.0	97.0	97.0	98.0	99.0	101.0	103.0	103.0	103.0	100.0	97.0	92.0	88.0	84.0	81.0	81.0	81.0	82.0	82.0	82.0	79.0	76.0	73.0	69.0	65.0	61.0	58.0	55.0	55.0	59.0	67.0	80.0	96.0	115.0	131.0	145.0	154.0	159.0	159.0	154.0	147.0	138.0	128.0	121.0	113.0	106.0	101.0	96.0	92.0	89.0	87.0	86.0	86.0	88.0	90.0	94.0	97.0	101.0	105.0	108.0	110.0	111.0	109.0	106.0	101.0	95.0	88.0	80.0	72.0	64.0	56.0	49.0	42.0	36.0	30.0	26.0	22.0	20.0	19.0	21.0	26.0	36.0	52.0	71.0	94.0	116.0	135.0	150.0	161.0	166.0	166.0	163.0	157.0	151.0	144.0	136.0	129.0	123.0	116.0	110.0	106.0	103.0	101.0	101.0	101.0	102.0	102.0	102.0	101.0	99.0	97.0	94.0	90.0	86.0	82.0	78.0	74.0	70.0	66.0	63.0	59.0	55.0	53.0	51.0	50.0	49.0	48.0	48.0	49.0	52.0	59.0	71.0	88.0	109.0	131.0	152.0	170.0	183.0	190.0	192.0	190.0	184.0	176.0	168.0	159.0	150.0	142.0	134.0	127.0	120.0	114.0	108.0	104.0	100.0	98.0	97.0	97.0	97.0	97.0	96.0	94.0	91.0	87.0	82.0	78.0	73.0	68.0	63.0	58.0	54.0	50.0	46.0	42.0	40.0	37.0	35.0	33.0	32.0	31.0	32.0	35.0	42.0	55.0	73.0	96.0	122.0	146.0	169.0	187.0	198.0	203.0	203.0	199.0	192.0	184.0	175.0	166.0	156.0	147.0	137.0	128.0	119.0	109.0	99.0	90.0	81.0	73.0	67.0	63.0	61.0	60.0	59.0	59.0	59.0	60.0	61.0	62.0	62.0	62.0	62.0	62.0	61.0	61.0	60.0	59.0	57.0	53.0	49.0	45.0	42.0	39.0	39.0	42.0	50.0	63.0	82.0	104.0	127.0	149.0	167.0	180.0	188.0	191.0	189.0	185.0	178.0	169.0	159.0	148.0	137.0	127.0	119.0	112.0	107.0	103.0	101.0	100.0	100.0	100.0	101.0	101.0	100.0	98.0	96.0	93.0	90.0	86.0	81.0	76.0	69.0	63.0	57.0	51.0	47.0	43.0	40.0	38.0	36.0	34.0	32.0	30.0	30.0	32.0	39.0	52.0	69.0	92.0	115.0	137.0	155.0	167.0	173.0	173.0	168.0	161.0	153.0	144.0	134.0	126.0	116.0	107.0	97.0	88.0	81.0	76.0	74.0	74.0	76.0	78.0	81.0	83.0	85.0	85.0	84.0	82.0	80.0	78.0	75.0	71.0	68.0	64.0	60.0	56.0	53.0	50.0	48.0	46.0	45.0	43.0	42.0	42.0	45.0	52.0	66.0	85.0	110.0	135.0	160.0	181.0	195.0	203.0	205.0	202.0	196.0	188.0	178.0	168.0	158.0	147.0	137.0	127.0	118.0	109.0	101.0	94.0	89.0	84.0	81.0	79.0	77.0	75.0	73.0	70.0	67.0	64.0	60.0	56.0	51.0	46.0	42.0	38.0	35.0	32.0	29.0	27.0	25.0	24.0	23.0	22.0	22.0	23.0	26.0	34.0	47.0	65.0	87.0	110.0	132.0	151.0	165.0	174.0	178.0	178.0	173.0	167.0	159.0	150.0	142.0	133.0	126.0	118.0	111.0	104.0	98.0	93.0	89.0	86.0	84.0	84.0	84.0	85.0	85.0	85.0	84.0	82.0	80.0	77.0	74.0	71.0	68.0	65.0	62.0	59.0	56.0	54.0	52.0	49.0	47.0	45.0	43.0	41.0	40.0	41.0	46.0	55.0	69.0	87.0	107.0	126.0	141.0	151.0	156.0	156.0	152.0	146.0	139.0	131.0	124.0	117.0	109.0	102.0	95.0	89.0	84.0	80.0	77.0	76.0	76.0	77.0	78.0	80.0	81.0	82.0	82.0	81.0	80.0	78.0	76.0	74.0	71.0	68.0	65.0	62.0	60.0	57.0	55.0	54.0	52.0	50.0	49.0	48.0	46.0	45.0	44.0	45.0	50.0	59.0	73.0	90.0	109.0	127.0	140.0	149.0	153.0	153.0	149.0	143.0	137.0	130.0	124.0	117.0	110.0	104.0	98.0	91.0	86.0	82.0	79.0	78.0	78.0	79.0	81.0	82.0	84.0	85.0	86.0	86.0	85.0	84.0	82.0	79.0	77.0	75.0	73.0	71.0	89.0	86.0	85.0	85.0	86.0	88.0	90.0	92.0	94.0	95.0	96.0	95.0	94.0	92.0	90.0	88.0	85.0	82.0	79.0	76.0	74.0	73.0	71.0	70.0	70.0	70.0	69.0	70.0	70.0	71.0	73.0	78.0	86.0	97.0	112.0	127.0	140.0	150.0	156.0	157.0	155.0	151.0	144.0	137.0	130.0	124.0	117.0	110.0	104.0	98.0	93.0	89.0	86.0	84.0	84.0	86.0	88.0	90.0	93.0	96.0	98.0	100.0	101.0	101.0	100.0	99.0	97.0	96.0	94.0	92.0	89.0	86.0	83.0	80.0	78.0	76.0	74.0	73.0	73.0	74.0	78.0	84.0	94.0	105.0	118.0	128.0	136.0	141.0	142.0	140.0	135.0	130.0	124.0	118.0	111.0	105.0	100.0	95.0	91.0	88.0	87.0	86.0	86.0	88.0	89.0	92.0	94.0	96.0	98.0	99.0	100.0	100.0	100.0	100.0	100.0	99.0	98.0	97.0	96.0	95.0	94.0	93.0	92.0	91.0	90.0	88.0	87.0	87.0	88.0	91.0	98.0	108.0	121.0	132.0	143.0	151.0	154.0	154.0	151.0	146.0	140.0	134.0	127.0	123.0	118.0	113.0	109.0	105.0	103.0	101.0	100.0	100.0	100.0	101.0	103.0	104.0	106.0	107.0	107.0	108.0	107.0	107.0	106.0	105.0	103.0	101.0	100.0	98.0	96.0	95.0	93.0	92.0	90.0	88.0	87.0	86.0	86.0	88.0	93.0	102.0	113.0	125.0	136.0	145.0	151.0	153.0	152.0	148.0	143.0	137.0	132.0	127.0	122.0	117.0	112.0	107.0	103.0	100.0	98.0	97.0	97.0	98.0	99.0	101.0	102.0	103.0	104.0	105.0	105.0	105.0	104.0	103.0	101.0	100.0	98.0	96.0	95.0	93.0	91.0	89.0	88.0	86.0	84.0	83.0	84.0	86.0	91.0	100.0	111.0	124.0	134.0	143.0	148.0	150.0	148.0	144.0	139.0	133.0	128.0	123.0	118.0	113.0	108.0	104.0	100.0	98.0	97.0	96.0	97.0	98.0	99.0	101.0	102.0	103.0	104.0	104.0	104.0	104.0	103.0	102.0	101.0	100.0	98.0	97.0	95.0	93.0	92.0	90.0	89.0	87.0	86.0	84.0	84.0	85.0	89.0	97.0	107.0	119.0	130.0	139.0	144.0	146.0	145.0	141.0	136.0	131.0	126.0	121.0	116.0	111.0	106.0	102.0	99.0	97.0	96.0	96.0	97.0	99.0	100.0	102.0	104.0	106.0	106.0	107.0	107.0	106.0	105.0	104.0	102.0	100.0	99.0	97.0	95.0	94.0	92.0	91.0	90.0	88.0	87.0	86.0	85.0	85.0	88.0	94.0	103.0	114.0	126.0	135.0	142.0	145.0	145.0	142.0	137.0	132.0	127.0	122.0	117.0	111.0	106.0	102.0	98.0	94.0	92.0	92.0	92.0	94.0	96.0	99.0	101.0	103.0	104.0	105.0	106.0	105.0	105.0	104.0	102.0	100.0	99.0	97.0	95.0	93.0	92.0	90.0	89.0	87.0	86.0	84.0	83.0	83.0	85.0	89.0	97.0	107.0	119.0	129.0	138.0	144.0	146.0	145.0	142.0	138.0	133.0	127.0	123.0	118.0	113.0	108.0	103.0	99.0	97.0	95.0	95.0	96.0	98.0	101.0	103.0	105.0	107.0	107.0	108.0	107.0	106.0	105.0	103.0	101.0	99.0	96.0	94.0	92.0	90.0	88.0	86.0	84.0	83.0	82.0	81.0	80.0	81.0	83.0	88.0	97.0	108.0	120.0	131.0	141.0	146.0	149.0	148.0	146.0	142.0	137.0	132.0	127.0	123.0	117.0	113.0	109.0	105.0	103.0	102.0	102.0	104.0	105.0	107.0	108.0	110.0	110.0	110.0	110.0	109.0	107.0	106.0	104.0	102.0	100.0	99.0	97.0	95.0	94.0	92.0	91.0	90.0	89.0	88.0	87.0	87.0	89.0	93.0	99.0	108.0	118.0	127.0	136.0	142.0	146.0	146.0	145.0	142.0	137.0	133.0	128.0	124.0	118.0	113.0	109.0	105.0	103.0	102.0	102.0	103.0	105.0	107.0	108.0	108.0	108.0	107.0	104.0	101.0	98.0	94.0	91.0	89.0	87.0	85.0	84.0	83.0	82.0	81.0	80.0	79.0	78.0	78.0	78.0	80.0	84.0	92.0	102.0	113.0	125.0	134.0	142.0	146.0	148.0	146.0	143.0	138.0	133.0	128.0	123.0	118.0	113.0	109.0	105.0	102.0	100.0	98.0	98.0	98.0	99.0	99.0	99.0	99.0	98.0	97.0	95.0	93.0	91.0	89.0	87.0	84.0	82.0	80.0	77.0	75.0	74.0	72.0	71.0	70.0	69.0	68.0	68.0	69.0	74.0	82.0	93.0	107.0	122.0	135.0	146.0	153.0	157.0	157.0	155.0	152.0	148.0	143.0	139.0	134.0	130.0	127.0	122.0	118.0	114.0	111.0	108.0	107.0	106.0	105.0	105.0	106.0	106.0	105.0	105.0	103.0	102.0	100.0	97.0	95.0	92.0	89.0	86.0	83.0	80.0	77.0	74.0	72.0	69.0	66.0	64.0	62.0	60.0	60.0	62.0	68.0	78.0	91.0	106.0	122.0	135.0	146.0	152.0	154.0	153.0	150.0	146.0	141.0	136.0	131.0	126.0	120.0	114.0	109.0	104.0	100.0	98.0	96.0	95.0	95.0	96.0	97.0	97.0	97.0	97.0	96.0	95.0	93.0	90.0	88.0	85.0	82.0	79.0	76.0	73.0	70.0	67.0	65.0	63.0	61.0	59.0	58.0	56.0	55.0	54.0	53.0	53.0	55.0	60.0	69.0	82.0	98.0	115.0	130.0	142.0	150.0	153.0	152.0	149.0	144.0	138.0	132.0	127.0	122.0	116.0	111.0	107.0	102.0	99.0	97.0	96.0	96.0	97.0	98.0	99.0	100.0	101.0	101.0	100.0	98.0	96.0	93.0	90.0	86.0	83.0	80.0	76.0	73.0	70.0	67.0	64.0	62.0	60.0	59.0	58.0	56.0	55.0	54.0	53.0	52.0	52.0	52.0	55.0	61.0	71.0	84.0	101.0	118.0	132.0	143.0	150.0	152.0	151.0	147.0	141.0	136.0	130.0	124.0	118.0	112.0	106.0	101.0	97.0	94.0	93.0	93.0	94.0	95.0	97.0	98.0	99.0	99.0	98.0	97.0	94.0	92.0	89.0	85.0	81.0	78.0	74.0	70.0	67.0	64.0	61.0	59.0	57.0	56.0	55.0	54.0	53.0	52.0	52.0	51.0	50.0	50.0	50.0	52.0	57.0	66.0	79.0	94.0	111.0	126.0	136.0	143.0	145.0	144.0	140.0	135.0	129.0	124.0	118.0	112.0	107.0	101.0	96.0	92.0	89.0	87.0	87.0	87.0	89.0	91.0	92.0	93.0	93.0	92.0	91.0	89.0	86.0	82.0	79.0	76.0	72.0	69.0	66.0	63.0	61.0	59.0	57.0	56.0	54.0	53.0	52.0	52.0	51.0	51.0	51.0	51.0	51.0	51.0	53.0	57.0	64.0	75.0	88.0	103.0	116.0	127.0	133.0	135.0	134.0	130.0	126.0	121.0	116.0	110.0	105.0	100.0	95.0	91.0	87.0	84.0	83.0	83.0	84.0	85.0	87.0	89.0	90.0	91.0	91.0	90.0	88.0	87.0	85.0	82.0	80.0	77.0	75.0	73.0	71.0	69.0	67.0	65.0	64.0	63.0	62.0	61.0	60.0	60.0	59.0	58.0	57.0	56.0	57.0	59.0	65.0	75.0	87.0	100.0	113.0	124.0	130.0	134.0	134.0	131.0	127.0	123.0	118.0	113.0	108.0	103.0	99.0	95.0	92.0	91.0	90.0	91.0	93.0	95.0	97.0	98.0	99.0	100.0	100.0	99.0	98.0	96.0	94.0	92.0	90.0	87.0	85.0	83.0	80.0	78.0	76.0	73.0	71.0	68.0	66.0	64.0	63.0	62.0	61.0	61.0	62.0	63.0	66.0	72.0	81.0	93.0	106.0	119.0	128.0	134.0	137.0	137.0	134.0	130.0	126.0	121.0	116.0	111.0	107.0	102.0	99.0	96.0	94.0	93.0	94.0	95.0	97.0	99.0	100.0	102.0	102.0	102.0	102.0	101.0	100.0	99.0	97.0	95.0	94.0	92.0	91.0	90.0	89.0	88.0	87.0	86.0	85.0	84.0	84.0	83.0	83.0	82.0	82.0	83.0	86.0	91.0	99.0	108.0	118.0	126.0	132.0	135.0	136.0	134.0	130.0	126.0	121.0	116.0	110.0	105.0	100.0	96.0	92.0	89.0	88.0	88.0	89.0	90.0	93.0	95.0	96.0	98.0	99.0	99.0	99.0	98.0	97.0	96.0	95.0	94.0	93.0	92.0	91.0	90.0	89.0	89.0	88.0	87.0	87.0	86.0	85.0	85.0	86.0	89.0	94.0	102.0	111.0	121.0	128.0	134.0	137.0	137.0	135.0	130.0	126.0	121.0	116.0	111.0	107.0	104.0	101.0	99.0	97.0	97.0	97.0	98.0	99.0	101.0	103.0	104.0	105.0	106.0	106.0	106.0	105.0	103.0	102.0	100.0	98.0	97.0	95.0	93.0	92.0	91.0	89.0	88.0	88.0	87.0	87.0	86.0	86.0	87.0	90.0	95.0	102.0	112.0	123.0	132.0	140.0	144.0	146.0	144.0	141.0	136.0	131.0	127.0	123.0	119.0	115.0	112.0	109.0	107.0	106.0	105.0	104.0	105.0	106.0	108.0	109.0	111.0	112.0	113.0	113.0	112.0	112.0	111.0	109.0	107.0	105.0	103.0	101.0	99.0	98.0	96.0	94.0	93.0	91.0	90.0	88.0	87.0	86.0	86.0	88.0	92.0	98.0	107.0	118.0	127.0	134.0	138.0	139.0	137.0	134.0	130.0	126.0	122.0	118.0	115.0	113.0	110.0	108.0	106.0	105.0	105.0	105.0	106.0	108.0	110.0	112.0	114.0	114.0	114.0	114.0	112.0	110.0	108.0	105.0	102.0	99.0	97.0	94.0	91.0	89.0	87.0	86.0	84.0	83.0	83.0	82.0	82.0	81.0	81.0	82.0	84.0	88.0	95.0	104.0	115.0	125.0	133.0	139.0	141.0	140.0	138.0	134.0	130.0	126.0	123.0	119.0	116.0	113.0	110.0	107.0	105.0	105.0	105.0	106.0	108.0	110.0	112.0	114.0	115.0	115.0	114.0	113.0	111.0	109.0	107.0	105.0	102.0	100.0	97.0	95.0	93.0	92.0	90.0	89.0	88.0	88.0	87.0	86.0	86.0	85.0	85.0	85.0	86.0	89.0	96.0	104.0	115.0	125.0	134.0	140.0	144.0	145.0	144.0	141.0	137.0	133.0	129.0	126.0	122.0	119.0	115.0	112.0	109.0	107.0	106.0	107.0	108.0	109.0	111.0	113.0	114.0	114.0	113.0	112.0	110.0	108.0	106.0	104.0	102.0	100.0	98.0	96.0	95.0	93.0	92.0	90.0	89.0	88.0	86.0	85.0	83.0	82.0	80.0	80.0	81.0	85.0	91.0	99.0	109.0	118.0	126.0	130.0	132.0	132.0	130.0	127.0	123.0	119.0	115.0	112.0	108.0	105.0	102.0	100.0	99.0	98.0	99.0	100.0	101.0	103.0	104.0	104.0	104.0	103.0	102.0	100.0	97.0	95.0	93.0	91.0	90.0	88.0	87.0	86.0	85.0	83.0	82.0	81.0	80.0	80.0	79.0	78.0	77.0	77.0	77.0	78.0	82.0	88.0	97.0	108.0	120.0	129.0	138.0	143.0	145.0	144.0	142.0	138.0	135.0	131.0	128.0	125.0	122.0	118.0	115.0	112.0	109.0	107.0	106.0	106.0	107.0	108.0	109.0	110.0	111.0	110.0	110.0	109.0	107.0	104.0	102.0	99.0	95.0	92.0	89.0	86.0	83.0	81.0	78.0	76.0	74.0	73.0	72.0	71.0	70.0	69.0	69.0	68.0	67.0	68.0	70.0	75.0	83.0	94.0	108.0	122.0	133.0	142.0	148.0	150.0	149.0	146.0	143.0	139.0	135.0	131.0	127.0	124.0	121.0	117.0	114.0	112.0	110.0	109.0	109.0	109.0	110.0	111.0	112.0	112.0	112.0	111.0	109.0	107.0	104.0	101.0	98.0	94.0	91.0	88.0	85.0	82.0	79.0	77.0	75.0	73.0	71.0	70.0	69.0	68.0	68.0	67.0	66.0	66.0	65.0	64.0	65.0	67.0	72.0	81.0	93.0	107.0	122.0	134.0	143.0	149.0	152.0	151.0	149.0	146.0	142.0	138.0	134.0	130.0	126.0	122.0	117.0	113.0	110.0	107.0	106.0	105.0	106.0	107.0	107.0	108.0	108.0	108.0	107.0	105.0	103.0	100.0	97.0	93.0	89.0	85.0	82.0	78.0	75.0	72.0	69.0	67.0	65.0	64.0	63.0	62.0	62.0	61.0	61.0	61.0	61.0	62.0	62.0	61.0	62.0	63.0	65.0	71.0	81.0	93.0	108.0	124.0	136.0	147.0	154.0	157.0	157.0	155.0	150.0	146.0	141.0	136.0	131.0	127.0	123.0	119.0	116.0	113.0	111.0	109.0	109.0	108.0	108.0	108.0	108.0	107.0	106.0	104.0	102.0	100.0	97.0	95.0	92.0	89.0	86.0	83.0	81.0	79.0	77.0	75.0	74.0	72.0	71.0	70.0	69.0	69.0	68.0	67.0	66.0	64.0	63.0	63.0	63.0	65.0	71.0	79.0	90.0	102.0	115.0	126.0	133.0	137.0	139.0	137.0	134.0	130.0	126.0	121.0	116.0	112.0	107.0	103.0	99.0	97.0	95.0	95.0	95.0	96.0	98.0	99.0	100.0	100.0	100.0	98.0	97.0	94.0	92.0	89.0	86.0	82.0	79.0	76.0	74.0	71.0	69.0	68.0	66.0	65.0	64.0	63.0	62.0	62.0	61.0	60.0	60.0	60.0	60.0	61.0	64.0	71.0	81.0	95.0	110.0	126.0	138.0	149.0	155.0	157.0	156.0	153.0	149.0	144.0	138.0	133.0	127.0	123.0	118.0	113.0	108.0	105.0	102.0	101.0	101.0	102.0	104.0	105.0	106.0	106.0	106.0	104.0	102.0	99.0	96.0	92.0	89.0	85.0	82.0	78.0	75.0	73.0	70.0	68.0	66.0	65.0	64.0	63.0	62.0	62.0	61.0	60.0	60.0	59.0	59.0	60.0	64.0	72.0	84.0	99.0	116.0	131.0	144.0	154.0	159.0	161.0	159.0	155.0	150.0	145.0	140.0	134.0	129.0	124.0	119.0	114.0	110.0	106.0	104.0	102.0	102.0	102.0	103.0	104.0	104.0	103.0	102.0	100.0	98.0	95.0	92.0	89.0	85.0	82.0	79.0	76.0	74.0	72.0	69.0	67.0	66.0	64.0	63.0	62.0	61.0	60.0	59.0	58.0	57.0	56.0	56.0	58.0	63.0	72.0	85.0	101.0	118.0	133.0	146.0	155.0	159.0	160.0	157.0	153.0	147.0	141.0	134.0	128.0	122.0	116.0	111.0	106.0	102.0	99.0	98.0	98.0	99.0	101.0	103.0	105.0	106.0	106.0	106.0	104.0	102.0	100.0	97.0	94.0	91.0	87.0	84.0	81.0	78.0	76.0	74.0	72.0	70.0	69.0	68.0	67.0	66.0	65.0	64.0	63.0	62.0	62.0	64.0	69.0	77.0	89.0	105.0	121.0	135.0	148.0	157.0	161.0	162.0	160.0	155.0	150.0	143.0	137.0	130.0	125.0	120.0	115.0	110.0	107.0	105.0	103.0	103.0	103.0	104.0	105.0	106.0	106.0	105.0	104.0	102.0	100.0	97.0	94.0	92.0	89.0	86.0	83.0	81.0	78.0	76.0	74.0	72.0	69.0	67.0	65.0	63.0	61.0	60.0	60.0	62.0	67.0	75.0	86.0	99.0	114.0	127.0	137.0	144.0	148.0	148.0	145.0	140.0	134.0	127.0	122.0	116.0	110.0	104.0	99.0	96.0	93.0	93.0	93.0	94.0	96.0	99.0	101.0	102.0	104.0	105.0	105.0	104.0	103.0	101.0	99.0	96.0	95.0	93.0	92.0	91.0	91.0	90.0	90.0	89.0	88.0	86.0	84.0	81.0	79.0	79.0	81.0	88.0	98.0	112.0	127.0	141.0	154.0	163.0	168.0	169.0	167.0	163.0	157.0	151.0	145.0	140.0	134.0	129.0	125.0	121.0	117.0	114.0	112.0	111.0	111.0	111.0	111.0	112.0	111.0	110.0	109.0	107.0	104.0	101.0	98.0	94.0	91.0	88.0	86.0	83.0	81.0	79.0	77.0	75.0	72.0	69.0	67.0	64.0	63.0	64.0	67.0	74.0	84.0	98.0	112.0	126.0	135.0	142.0	145.0	145.0	141.0	136.0	130.0	124.0	117.0	110.0	103.0	96.0	89.0	83.0	78.0	75.0	74.0	75.0	77.0	79.0	82.0	83.0	83.0	81.0	77.0	73.0	68.0	63.0	60.0	57.0	55.0	53.0	51.0	50.0	49.0	49.0	51.0	54.0	57.0	61.0	65.0	69.0	73.0	80.0	89.0	101.0	115.0	128.0	141.0	151.0	156.0	158.0	157.0	153.0	147.0	140.0	133.0	126.0	119.0	113.0	108.0	103.0	99.0	97.0	95.0	94.0	94.0	94.0	95.0	95.0	95.0	95.0	94.0	92.0	90.0	88.0	85.0	83.0	80.0	78.0	76.0	74.0	72.0	71.0	70.0	68.0	67.0	66.0	64.0	63.0	63.0	66.0	71.0	80.0	93.0	107.0	121.0	133.0	144.0	150.0	153.0	153.0	151.0	148.0	144.0	139.0	135.0	130.0	127.0	122.0	117.0	113.0	110.0	108.0	107.0	107.0	107.0	107.0	107.0	106.0	105.0	103.0	101.0	99.0	97.0	94.0	91.0	89.0	86.0	84.0	82.0	80.0	78.0	76.0	74.0	73.0	71.0	70.0	69.0	69.0	70.0	74.0	81.0	91.0	105.0	119.0	132.0	143.0	150.0	154.0	153.0	149.0	143.0	136.0	130.0	124.0	117.0	111.0	104.0	97.0	92.0	88.0	85.0	85.0	85.0	87.0	88.0	88.0	89.0	88.0	87.0	85.0	83.0	81.0	78.0	76.0	74.0	72.0	71.0	69.0	68.0	66.0	65.0	65.0	64.0	64.0	64.0	65.0	67.0	72.0	79.0	90.0	105.0	120.0	135.0	147.0	156.0	161.0	162.0	160.0	155.0	150.0	143.0	137.0	131.0	125.0	119.0	113.0	107.0	102.0	99.0	97.0	96.0	95.0	94.0	94.0	92.0	90.0	88.0	85.0	82.0	79.0	75.0	72.0	68.0	65.0	62.0	60.0	58.0	56.0	55.0	53.0	52.0	51.0	50.0	49.0	48.0	48.0	47.0	48.0	51.0	56.0	66.0	79.0	96.0	113.0	129.0	142.0	151.0	155.0	155.0	153.0	149.0	144.0	139.0	134.0	128.0	124.0	119.0	114.0	108.0	103.0	99.0	96.0	94.0	92.0	92.0	92.0	91.0	91.0	90.0	89.0	86.0	84.0	81.0	78.0	75.0	72.0	68.0	65.0	62.0	59.0	56.0	54.0	52.0	50.0	49.0	48.0	47.0	46.0	45.0	44.0	44.0	44.0	47.0	51.0	60.0	71.0	86.0	101.0	115.0	126.0	133.0	136.0	136.0	133.0	129.0	125.0	121.0	116.0	112.0	107.0	103.0	98.0	94.0	90.0	88.0	86.0	86.0	87.0	88.0	89.0	89.0	89.0	89.0	88.0	86.0	84.0	81.0	79.0	76.0	74.0	71.0	69.0	66.0	64.0	62.0	60.0	58.0	57.0	55.0	54.0	53.0	53.0	53.0	53.0	53.0	53.0	54.0	54.0	53.0	53.0	52.0	52.0	55.0	61.0	71.0	83.0	97.0	110.0	121.0	128.0	132.0	133.0	131.0	129.0	127.0	124.0	121.0	119.0	115.0	112.0	108.0	104.0	100.0	98.0	96.0	95.0	95.0	96.0	97.0	98.0	99.0	99.0	98.0	96.0	94.0	91.0	88.0	85.0	83.0	80.0	78.0	75.0	73.0	71.0	68.0	67.0	65.0	64.0	63.0	63.0	63.0	64.0	64.0	65.0	65.0	66.0	66.0	66.0	66.0	66.0	68.0	71.0	77.0	85.0	97.0	110.0	122.0	132.0	139.0	142.0	142.0	139.0	135.0	131.0	127.0	123.0	120.0	116.0	113.0	110.0	107.0	105.0	103.0	103.0	103.0	103.0	104.0	105.0	105.0	105.0	104.0	103.0	102.0	100.0	98.0	97.0	95.0	93.0	91.0	90.0	88.0	87.0	85.0	84.0	83.0	82.0	81.0	81.0	80.0	80.0	80.0	79.0	78.0	77.0	76.0	74.0	73.0	73.0	74.0	77.0	83.0	91.0	100.0	109.0	118.0	123.0	126.0	126.0	124.0	120.0	116.0	112.0	107.0	103.0	100.0	97.0	94.0	92.0	90.0	90.0	90.0	91.0	93.0	95.0	97.0	99.0	101.0	101.0	101.0	100.0	100.0	98.0	97.0	96.0	94.0	93.0	92.0	90.0	89.0	88.0	86.0	85.0	84.0	84.0	84.0	84.0	84.0	84.0	85.0	85.0	85.0	85.0	85.0	87.0	91.0	97.0	105.0	115.0	125.0	132.0	138.0	140.0	139.0	136.0	132.0	127.0	121.0	116.0	111.0	107.0	103.0	100.0	97.0	94.0	93.0	92.0	93.0	94.0	96.0	99.0	101.0	104.0	107.0	109.0	110.0	111.0	111.0	111.0	110.0	109.0	108.0	107.0	105.0	103.0	101.0	99.0	97.0	94.0	92.0	89.0	86.0	83.0	80.0	77.0	75.0	74.0	75.0	76.0	80.0	87.0	96.0	107.0	119.0	130.0	140.0	146.0	147.0	145.0	138.0	130.0	122.0	113.0	106.0	99.0	94.0	90.0	87.0	84.0	82.0	81.0	81.0	82.0	83.0	85.0	87.0	89.0	91.0	92.0	93.0	93.0	92.0	92.0	91.0	90.0	89.0	89.0	90.0	92.0	95.0	98.0	101.0	103.0	105.0	106.0	106.0	106.0	105.0	103.0	102.0	100.0	100.0	101.0	105.0	111.0	118.0	125.0	128.0	130.0	129.0	126.0	121.0	115.0	110.0	105.0	101.0	97.0	94.0	92.0	89.0	88.0	87.0	87.0	87.0	88.0	90.0	92.0	93.0	95.0	96.0	96.0	96.0	96.0	96.0	97.0	98.0	100.0	103.0	106.0	110.0	113.0	117.0	119.0	121.0	123.0	123.0	122.0	120.0	116.0	110.0	105.0	100.0	98.0	100.0	105.0	112.0	120.0	127.0	131.0	133.0	133.0	130.0	127.0	125.0	122.0	121.0	121.0	122.0	124.0	126.0	127.0	128.0	130.0	132.0	134.0	136.0	138.0	139.0	140.0	138.0	135.0	130.0	124.0	117.0	109.0	103.0	98.0	93.0	90.0	88.0	87.0	86.0	85.0	85.0	84.0	82.0	81.0	79.0	79.0	80.0	83.0	88.0	97.0	108.0	120.0	130.0	140.0	146.0	150.0	150.0	147.0	143.0	138.0	132.0	127.0	123.0	118.0	115.0	112.0	109.0	106.0	104.0	103.0	102.0	102.0	103.0	104.0	104.0	105.0	105.0	106.0	107.0	108.0	109.0	109.0	110.0	109.0	108.0	106.0	104.0	102.0	100.0	98.0	97.0	96.0	95.0	94.0	95.0	98.0	104.0	112.0	122.0	131.0	139.0	145.0	148.0	147.0	144.0	139.0	134.0	130.0	127.0	125.0	123.0	122.0	120.0	117.0	114.0	110.0	106.0	103.0	100.0	99.0	99.0	100.0	100.0	101.0	101.0	101.0	101.0	101.0	101.0	101.0	101.0	101.0	100.0	99.0	96.0	94.0	91.0	87.0	84.0	81.0	79.0	78.0	80.0	85.0	94.0	105.0	118.0	130.0	140.0	148.0	151.0	151.0	149.0	145.0	139.0	133.0	127.0	122.0	116.0	110.0	105.0	101.0	98.0	96.0	95.0	95.0	96.0	97.0	99.0	101.0	103.0	104.0	105.0	104.0	103.0	102.0	100.0	98.0	96.0	94.0	91.0	89.0	87.0	84.0	82.0	80.0	78.0	76.0	76.0	77.0	81.0	88.0	97.0	108.0	117.0	124.0	127.0	127.0	124.0	119.0	112.0	107.0	101.0	97.0	93.0	90.0	87.0	84.0	81.0	79.0	78.0	77.0	77.0	121.0	119.0	116.0	111.0	106.0	101.0	97.0	92.0	89.0	85.0	82.0	79.0	77.0	76.0	76.0	77.0	79.0	81.0	84.0	87.0	90.0	92.0	93.0	92.0	92.0	91.0	90.0	89.0	88.0	88.0	87.0	86.0	85.0	85.0	84.0	83.0	81.0	78.0	75.0	73.0	73.0	76.0	82.0	91.0	100.0	108.0	113.0	115.0	114.0	111.0	106.0	101.0	96.0	92.0	89.0	87.0	86.0	87.0	88.0	89.0	91.0	94.0	96.0	98.0	101.0	102.0	103.0	103.0	102.0	99.0	97.0	94.0	91.0	88.0	85.0	83.0	82.0	81.0	80.0	78.0	77.0	75.0	74.0	72.0	71.0	71.0	72.0	75.0	81.0	89.0	99.0	110.0	120.0	127.0	131.0	132.0	130.0	126.0	120.0	114.0	108.0	103.0	98.0	95.0	93.0	93.0	92.0	93.0	94.0	96.0	98.0	101.0	103.0	105.0	107.0	108.0	109.0	108.0	108.0	106.0	105.0	103.0	102.0	100.0	99.0	98.0	96.0	94.0	93.0	91.0	90.0	90.0	90.0	91.0	93.0	97.0	102.0	110.0	118.0	126.0	130.0	131.0	130.0	126.0	120.0	113.0	107.0	101.0	96.0	92.0	90.0	88.0	86.0	85.0	84.0	84.0	84.0	86.0	88.0	92.0	95.0	98.0	101.0	103.0	104.0	105.0	105.0	105.0	104.0	103.0	103.0	101.0	100.0	99.0	97.0	96.0	94.0	93.0	92.0	92.0	93.0	97.0	102.0	109.0	116.0	123.0	127.0	128.0	127.0	124.0	120.0	114.0	108.0	103.0	98.0	94.0	90.0	89.0	88.0	89.0	90.0	93.0	95.0	97.0	99.0	101.0	102.0	102.0	102.0	101.0	100.0	98.0	96.0	95.0	93.0	91.0	90.0	88.0	86.0	84.0	83.0	81.0	79.0	78.0	79.0	81.0	86.0	93.0	102.0	111.0	118.0	122.0	123.0	122.0	120.0	116.0	113.0	109.0	105.0	101.0	97.0	93.0	89.0	85.0	83.0	82.0	82.0	83.0	84.0	86.0	87.0	89.0	90.0	91.0	91.0	91.0	91.0	92.0	92.0	94.0	95.0	96.0	97.0	98.0	98.0	99.0	99.0	99.0	100.0	101.0	103.0	107.0	113.0	120.0	127.0	135.0	139.0	141.0	140.0	136.0	131.0	126.0	120.0	116.0	111.0	108.0	105.0	103.0	101.0	99.0	97.0	95.0	94.0	94.0	94.0	95.0	96.0	97.0	97.0	97.0	96.0	96.0	94.0	93.0	91.0	89.0	88.0	87.0	85.0	84.0	84.0	83.0	83.0	82.0	82.0	83.0	85.0	89.0	95.0	103.0	113.0	122.0	128.0	132.0	133.0	130.0	127.0	123.0	118.0	113.0	110.0	107.0	104.0	101.0	100.0	98.0	98.0	97.0	98.0	98.0	99.0	100.0	101.0	102.0	102.0	102.0	101.0	100.0	99.0	98.0	97.0	95.0	94.0	93.0	92.0	91.0	90.0	89.0	88.0	86.0	85.0	85.0	85.0	88.0	92.0	99.0	107.0	115.0	122.0	126.0	127.0	126.0	122.0	117.0	112.0	107.0	103.0	99.0	96.0	94.0	92.0	90.0	89.0	89.0	89.0	91.0	93.0	95.0	97.0	99.0	101.0	102.0	102.0	102.0	102.0	101.0	99.0	98.0	97.0	95.0	94.0	93.0	92.0	90.0	89.0	88.0	87.0	86.0	87.0	88.0	91.0	96.0	104.0	112.0	120.0	126.0	129.0	130.0	129.0	126.0	122.0	117.0	111.0	107.0	103.0	100.0	97.0	96.0	94.0	94.0	94.0	95.0	96.0	98.0	99.0	101.0	102.0	103.0	103.0	102.0	101.0	100.0	98.0	97.0	95.0	94.0	93.0	92.0	92.0	91.0	90.0	90.0	90.0	89.0	89.0	89.0	91.0	94.0	99.0	106.0	114.0	122.0	127.0	128.0	127.0	125.0	120.0	114.0	108.0	103.0	99.0	95.0	93.0	91.0	89.0	89.0	89.0	90.0	91.0	93.0	95.0	97.0	98.0	100.0	101.0	102.0	102.0	102.0	102.0	101.0	100.0	99.0	98.0	97.0	96.0	95.0	95.0	94.0	93.0	93.0	93.0	92.0	93.0	96.0	100.0	107.0	115.0	123.0	129.0	133.0	134.0	132.0	128.0	123.0	117.0	111.0	105.0	101.0	97.0	94.0	92.0	90.0	90.0	89.0	90.0	92.0	94.0	96.0	99.0	101.0	103.0	104.0	104.0	104.0	103.0	102.0	101.0	100.0	99.0	97.0	96.0	95.0	94.0	93.0	92.0	92.0	91.0	91.0	91.0	92.0	95.0	101.0	108.0	117.0	125.0	130.0	133.0	133.0	131.0	127.0	122.0	116.0	111.0	107.0	102.0	99.0	97.0	95.0	93.0	93.0	93.0	95.0	96.0	98.0	100.0	102.0	103.0	103.0	103.0	103.0	102.0	101.0	99.0	98.0	97.0	96.0	95.0	94.0	93.0	92.0	92.0	91.0	91.0	91.0	91.0	94.0	98.0	105.0	113.0	121.0	127.0	130.0	132.0	130.0	127.0	124.0	119.0	114.0	110.0	106.0	102.0	98.0	96.0	93.0	92.0	91.0	92.0	94.0	96.0	98.0	100.0	102.0	103.0	104.0	103.0	103.0	102.0	101.0	100.0	99.0	98.0	97.0	96.0	96.0	95.0	94.0	93.0	93.0	93.0	94.0	98.0	103.0	110.0	119.0	127.0	134.0	139.0	140.0	139.0	136.0	131.0	127.0	122.0	118.0	113.0	109.0	105.0	102.0	99.0	97.0	97.0	97.0	98.0	99.0	101.0	102.0	103.0	103.0	103.0	102.0	101.0	99.0	98.0	97.0	95.0	94.0	93.0	92.0	92.0	92.0	92.0	93.0	93.0	94.0	96.0	98.0	103.0	110.0	118.0	126.0	133.0	138.0	141.0	140.0	137.0	133.0	128.0	124.0	119.0	115.0	111.0	108.0	105.0	103.0	101.0	100.0	99.0	100.0	101.0	103.0	105.0	106.0	107.0	108.0	107.0	106.0	105.0	104.0	102.0	100.0	99.0	97.0	95.0	94.0	92.0	91.0	89.0	88.0	87.0	86.0	86.0	88.0	91.0	98.0	107.0	117.0	127.0	134.0	139.0	141.0	140.0	137.0	132.0	127.0	122.0	116.0	112.0	108.0	105.0	103.0	101.0	100.0	99.0	99.0	99.0	101.0	102.0	104.0	105.0	106.0	107.0	107.0	105.0	103.0	99.0	96.0	93.0	90.0	88.0	86.0	85.0	83.0	82.0	80.0	79.0	78.0	77.0	77.0	79.0	83.0	90.0	99.0	111.0	124.0	133.0	141.0	146.0	146.0	144.0	141.0	136.0	131.0	127.0	124.0	120.0	117.0	114.0	110.0	107.0	104.0	102.0	101.0	100.0	99.0	100.0	100.0	100.0	101.0	100.0	100.0	99.0	98.0	97.0	95.0	94.0	92.0	90.0	87.0	85.0	83.0	80.0	78.0	76.0	74.0	73.0	72.0	72.0	74.0	79.0	86.0	97.0	109.0	121.0	131.0	138.0	142.0	143.0	142.0	139.0	135.0	131.0	127.0	123.0	119.0	114.0	110.0	105.0	102.0	99.0	98.0	97.0	97.0	97.0	98.0	98.0	98.0	97.0	95.0	94.0	92.0	91.0	91.0	91.0	92.0	93.0	94.0	94.0	93.0	93.0	93.0	92.0	92.0	91.0	90.0	89.0	90.0	92.0	96.0	102.0	109.0	117.0	125.0	129.0	132.0	133.0	133.0	132.0	131.0	130.0	130.0	129.0	128.0	127.0	124.0	121.0	118.0	116.0	114.0	112.0	111.0	110.0	109.0	108.0	106.0	102.0	97.0	90.0	84.0	77.0	71.0	66.0	62.0	60.0	59.0	58.0	56.0	54.0	50.0	47.0	42.0	38.0	35.0	32.0	32.0	33.0	38.0	46.0	56.0	68.0	80.0	91.0	102.0	112.0	119.0	124.0	126.0	126.0	123.0	119.0	112.0	105.0	98.0	90.0	84.0	79.0	76.0	75.0	77.0	80.0	83.0	84.0	85.0	84.0	81.0	79.0	76.0	73.0	68.0	62.0	56.0	50.0	44.0	40.0	37.0	35.0	33.0	32.0	31.0	30.0	31.0	31.0	33.0	36.0	40.0	48.0	59.0	72.0	87.0	101.0	113.0	120.0	124.0	124.0	123.0	120.0	118.0	115.0	112.0	108.0	104.0	100.0	97.0	95.0	93.0	93.0	93.0	92.0	92.0	91.0	91.0	90.0	90.0	90.0	89.0	88.0	87.0	86.0	86.0	86.0	87.0	87.0	86.0	86.0	85.0	85.0	86.0	88.0	91.0	96.0	102.0	109.0	119.0	128.0	138.0	146.0	152.0	154.0	153.0	148.0	140.0	130.0	120.0	109.0	98.0	88.0	79.0	71.0	66.0	62.0	60.0	60.0	61.0	63.0	64.0	66.0	68.0	69.0	69.0	68.0	66.0	64.0	62.0	61.0	59.0	58.0	58.0	57.0	58.0	58.0	59.0	60.0	61.0	62.0	62.0	64.0	67.0	73.0	83.0	95.0	108.0	120.0	129.0	135.0	138.0	138.0	135.0	132.0	127.0	123.0	118.0	114.0	109.0	106.0	103.0	100.0	98.0	97.0	97.0	97.0	99.0	102.0	106.0	109.0	110.0	109.0	106.0	102.0	97.0	93.0	89.0	86.0	84.0	82.0	81.0	79.0	78.0	77.0	77.0	76.0	76.0	76.0	76.0	79.0	84.0	91.0	100.0	107.0	114.0	117.0	117.0	116.0	112.0	107.0	102.0	97.0	94.0	91.0	90.0	90.0	91.0	92.0	93.0	95.0	97.0	99.0	102.0	104.0	106.0	108.0	108.0	108.0	107.0	106.0	104.0	102.0	101.0	99.0	98.0	98.0	98.0	98.0	99.0	99.0	98.0	98.0	98.0	98.0	99.0	101.0	106.0	113.0	121.0	127.0	133.0	136.0	135.0	132.0	127.0	121.0	114.0	107.0	101.0	95.0	90.0	86.0	82.0	80.0	78.0	77.0	76.0	76.0	76.0	76.0	76.0	75.0	74.0	72.0	70.0	69.0	68.0	67.0	66.0	65.0	64.0	63.0	62.0	63.0	63.0	64.0	65.0	66.0	68.0	69.0	71.0	75.0	81.0	90.0	100.0	110.0	119.0	125.0	127.0	127.0	125.0	122.0	120.0	117.0	115.0	112.0	110.0	107.0	104.0	102.0	100.0	98.0	97.0	97.0	97.0	97.0	97.0	98.0	98.0	97.0	96.0	94.0	92.0	90.0	88.0	86.0	84.0	82.0	81.0	80.0	80.0	79.0	78.0	78.0	78.0	79.0	82.0	87.0	95.0	103.0	112.0	119.0	123.0	125.0	124.0	122.0	118.0	113.0	109.0	105.0	102.0	99.0	96.0	94.0	93.0	91.0	91.0	91.0	92.0	93.0	95.0	96.0	97.0	97.0	97.0	97.0	96.0	95.0	94.0	92.0	91.0	90.0	89.0	89.0	88.0	87.0	86.0	86.0	85.0	85.0	86.0	87.0	90.0	96.0	105.0	114.0	124.0	131.0	136.0	137.0	136.0	133.0	129.0	126.0	123.0	120.0	118.0	117.0	116.0	116.0	115.0	114.0	112.0	111.0	110.0	109.0	108.0	108.0	107.0	107.0	106.0	105.0	104.0	102.0	101.0	100.0	99.0	98.0	98.0	98.0	98.0	98.0	98.0	98.0	97.0	97.0	96.0	97.0	99.0	103.0	109.0	117.0	125.0	130.0	134.0	135.0	132.0	127.0	123.0	117.0	111.0	106.0	102.0	99.0	97.0	95.0	94.0	93.0	92.0	91.0	91.0	92.0	93.0	95.0	97.0	98.0	99.0	99.0	99.0	98.0	96.0	94.0	92.0	91.0	89.0	88.0	87.0	86.0	85.0	85.0	85.0	85.0	84.0	84.0	85.0	88.0	93.0	100.0	108.0	115.0	121.0	124.0	123.0	121.0	116.0	111.0	106.0	101.0	96.0	93.0	90.0	89.0	87.0	86.0	85.0	85.0	85.0	86.0	87.0	89.0	90.0	91.0	92.0	93.0	93.0	92.0	91.0	89.0	88.0	86.0	85.0	83.0	83.0	82.0	82.0	81.0	81.0	81.0	82.0	82.0	83.0	86.0	90.0	97.0	105.0	114.0	122.0	128.0	131.0	131.0	128.0	125.0	120.0	115.0	110.0	107.0	104.0	101.0	100.0	98.0	97.0	96.0	95.0	95.0	96.0	96.0	97.0	98.0	99.0	100.0	100.0	100.0	100.0	99.0	98.0	97.0	96.0	95.0	94.0	93.0	93.0	92.0	92.0	91.0	91.0	91.0	91.0	91.0	92.0	94.0	99.0	106.0	115.0	124.0	130.0	135.0	136.0	134.0	130.0	126.0	120.0	114.0	109.0	105.0	102.0	100.0	98.0	96.0	95.0	94.0	95.0	95.0	96.0	97.0	99.0	100.0	100.0	101.0	101.0	100.0	100.0	99.0	98.0	97.0	96.0	95.0	94.0	94.0	93.0	92.0	92.0	91.0	91.0	91.0	92.0	92.0	94.0	98.0	103.0	111.0	120.0	128.0	134.0	138.0	138.0	135.0	131.0	126.0	120.0	114.0	109.0	105.0	102.0	99.0	97.0	95.0	94.0	93.0	94.0	94.0	95.0	96.0	97.0	98.0	99.0	100.0	100.0	99.0	98.0	98.0	97.0	95.0	94.0	93.0	93.0	92.0	92.0	92.0	92.0	91.0	91.0	91.0	91.0	91.0	93.0	96.0	102.0	109.0	118.0	127.0	132.0	136.0	136.0	134.0	129.0	124.0	119.0	113.0	109.0	105.0	102.0	99.0	97.0	96.0	95.0	95.0	96.0	98.0	100.0	102.0	103.0	105.0	105.0	105.0	105.0	104.0	103.0	102.0	100.0	99.0	98.0	97.0	96.0	96.0	95.0	95.0	94.0	94.0	94.0	93.0	94.0	96.0	100.0	105.0	113.0	121.0	128.0	133.0	136.0	135.0	133.0	128.0	123.0	118.0	112.0	108.0	104.0	100.0	98.0	96.0	95.0	94.0	94.0	95.0	96.0	98.0	99.0	100.0	101.0	101.0	101.0	100.0	99.0	98.0	97.0	95.0	94.0	93.0	93.0	92.0	91.0	91.0	90.0	90.0	90.0	90.0	90.0	90.0	91.0	94.0	100.0	108.0	118.0	127.0	136.0	141.0	143.0	142.0	138.0	133.0	127.0	122.0	117.0	113.0	109.0	107.0	104.0	102.0	99.0	98.0	97.0	96.0	96.0	97.0	97.0	98.0	99.0	99.0	99.0	98.0	97.0	96.0	95.0	94.0	93.0	92.0	91.0	90.0	90.0	89.0	88.0	88.0	87.0	87.0	87.0	88.0	89.0	93.0	100.0	108.0	118.0	127.0	132.0	136.0	136.0	134.0	130.0	125.0	120.0	116.0	111.0	108.0	105.0	103.0	101.0	99.0	98.0	97.0	97.0	97.0	98.0	99.0	100.0	101.0	101.0	101.0	100.0	99.0	98.0	97.0	95.0	94.0	93.0	92.0	92.0	91.0	91.0	90.0	90.0	90.0	89.0	89.0	89.0	90.0	93.0	98.0	105.0	114.0	123.0	130.0	135.0	137.0	136.0	133.0	129.0	124.0	119.0	115.0	111.0	108.0	105.0	103.0	101.0	99.0	98.0	98.0	98.0	99.0	100.0	101.0	102.0	102.0	102.0	101.0	100.0	99.0	98.0	96.0	95.0	94.0	93.0	92.0	91.0	89.0	89.0	88.0	87.0	87.0	86.0	86.0	87.0	89.0	94.0	101.0	110.0	119.0	127.0	133.0	136.0	136.0	134.0	130.0	126.0	121.0	117.0	113.0	110.0	107.0	104.0	102.0	100.0	99.0	98.0	98.0	98.0	99.0	100.0	101.0	102.0	101.0	101.0	100.0	99.0	97.0	96.0	94.0	93.0	92.0	91.0	90.0	89.0	88.0	87.0	86.0	86.0	85.0	85.0	86.0	89.0	95.0	102.0	112.0	121.0	128.0	133.0	135.0	135.0	132.0	128.0	124.0	120.0	116.0	112.0	109.0	106.0	103.0	101.0	99.0	98.0	98.0	98.0	99.0	100.0	101.0	102.0	102.0	102.0	101.0	99.0	98.0	96.0	95.0	93.0	92.0	91.0	90.0	89.0	88.0	87.0	87.0	86.0	86.0	85.0	85.0	86.0	89.0	95.0	102.0	111.0	121.0	128.0	134.0	136.0	135.0	132.0	128.0	124.0	120.0	116.0	112.0	109.0	106.0	104.0	101.0	100.0	99.0	98.0	98.0	99.0	100.0	100.0	101.0	101.0	100.0	99.0	98.0	96.0	95.0	93.0	92.0	90.0	89.0	88.0	87.0	86.0	86.0	85.0	84.0	84.0	83.0	83.0	82.0	82.0	84.0	87.0	94.0	102.0	112.0	122.0	129.0	134.0	136.0	135.0	132.0	128.0	124.0	120.0	115.0	112.0	108.0	105.0	102.0	100.0	98.0	96.0	96.0	96.0	97.0	98.0	98.0	99.0	98.0	98.0	97.0	95.0	93.0	92.0	90.0	88.0	87.0	85.0	84.0	83.0	82.0	81.0	81.0	80.0	79.0	79.0	78.0	77.0	77.0	76.0	76.0	76.0	78.0	83.0	90.0	99.0	110.0	120.0	128.0	133.0	134.0	133.0	129.0	126.0	121.0	116.0	112.0	108.0	105.0	102.0	99.0	97.0	95.0	93.0	93.0	93.0	94.0	95.0	96.0	96.0	96.0	96.0	95.0	94.0	92.0	90.0	88.0	86.0	85.0	83.0	82.0	81.0	81.0	80.0	79.0	79.0	78.0	78.0	77.0	77.0	77.0	77.0	77.0	77.0	77.0	79.0	83.0	89.0	98.0	108.0	118.0	126.0	130.0	131.0	130.0	127.0	122.0	117.0	112.0	108.0	104.0	101.0	98.0	96.0	93.0	92.0	91.0	90.0	91.0	91.0	92.0	93.0	94.0	94.0	93.0	92.0	91.0	89.0	88.0	86.0	85.0	83.0	82.0	81.0	80.0	79.0	79.0	78.0	78.0	77.0	77.0	77.0	76.0	76.0	76.0	76.0	75.0	76.0	76.0	78.0	82.0	89.0	97.0	107.0	117.0	124.0	128.0	129.0	128.0	125.0	120.0	115.0	110.0	106.0	102.0	99.0	96.0	94.0	92.0	91.0	91.0	91.0	92.0	94.0	95.0	96.0	97.0	98.0	98.0	97.0	96.0	94.0	93.0	91.0	90.0	89.0	88.0	87.0	87.0	86.0	86.0	86.0	86.0	85.0	85.0	84.0	84.0	84.0	84.0	85.0	88.0	93.0	100.0	108.0	115.0	121.0	124.0	124.0	123.0	119.0	115.0	111.0	107.0	103.0	100.0	97.0	94.0	92.0	91.0	90.0	90.0	91.0	92.0	94.0	95.0	96.0	96.0	96.0	95.0	94.0	93.0	92.0	91.0	90.0	89.0	88.0	87.0	87.0	86.0	86.0	86.0	85.0	85.0	85.0	85.0	84.0	84.0	85.0	86.0	90.0	96.0	105.0	115.0	124.0	131.0	135.0	136.0	135.0	131.0	127.0	123.0	118.0	113.0	110.0	107.0	104.0	102.0	100.0	99.0	97.0	97.0	97.0	97.0	97.0	98.0	99.0	99.0	99.0	99.0	98.0	97.0	95.0	94.0	92.0	91.0	90.0	89.0	88.0	87.0	86.0	86.0	85.0	85.0	84.0	84.0	84.0	83.0	84.0	86.0	90.0	96.0	105.0	114.0	123.0	130.0	134.0	135.0	133.0	130.0	127.0	122.0	118.0	114.0	111.0	108.0	106.0	104.0	103.0	101.0	100.0	99.0	99.0	99.0	99.0	99.0	100.0	100.0	100.0	99.0	98.0	97.0	95.0	94.0	92.0	91.0	90.0	89.0	89.0	89.0	89.0	89.0	88.0	87.0	86.0	84.0	83.0	81.0	80.0	80.0	81.0	84.0	90.0	97.0	106.0	115.0	123.0	127.0	130.0	129.0	127.0	124.0	119.0	115.0	112.0	109.0	107.0	105.0	103.0	101.0	100.0	99.0	98.0	98.0	98.0	98.0	99.0	99.0	100.0	100.0	99.0	99.0	98.0	96.0	95.0	94.0	92.0	91.0	90.0	89.0	89.0	88.0	88.0	87.0	87.0	87.0	87.0	86.0	86.0	86.0	85.0	85.0	86.0	87.0	89.0	94.0	100.0	107.0	115.0	122.0	127.0	129.0	128.0	127.0	123.0	119.0	114.0	110.0	107.0	104.0	102.0	100.0	98.0	97.0	96.0	95.0	95.0	95.0	96.0	97.0	98.0	98.0	99.0	98.0	97.0	96.0	95.0	94.0	93.0	93.0	92.0	91.0	91.0	90.0	89.0	89.0	89.0	89.0	89.0	89.0	89.0	89.0	89.0	88.0	88.0	88.0	90.0	93.0	98.0	105.0	112.0	119.0	125.0	127.0	128.0	127.0	125.0	121.0	117.0	114.0	111.0	108.0	105.0	103.0	101.0	99.0	99.0	98.0	99.0	99.0	100.0	101.0	101.0	101.0	101.0	100.0	98.0	97.0	96.0	94.0	93.0	91.0	90.0	89.0	88.0	87.0	87.0	86.0	86.0	86.0	85.0	85.0	85.0	86.0	86.0	86.0	88.0	91.0	95.0	102.0	111.0	120.0	127.0	133.0	136.0	136.0	134.0	130.0	127.0	122.0	118.0	114.0	111.0	109.0	107.0	104.0	102.0	101.0	99.0	98.0	98.0	98.0	98.0	99.0	100.0	100.0	100.0	100.0	99.0	98.0	96.0	95.0	93.0	92.0	91.0	90.0	89.0	88.0	87.0	86.0	85.0	85.0	84.0	84.0	84.0	84.0	83.0	83.0	84.0	86.0	90.0	97.0	105.0	114.0	122.0	127.0	131.0	132.0	130.0	127.0	124.0	119.0	115.0	112.0	110.0	107.0	105.0	103.0	101.0	99.0	98.0	98.0	98.0	98.0	98.0	99.0	100.0	100.0	99.0	99.0	97.0	96.0	94.0	93.0	91.0	90.0	89.0	88.0	87.0	86.0	86.0	86.0	86.0	86.0	86.0	85.0	85.0	84.0	83.0	82.0	81.0	80.0	81.0	83.0	88.0	94.0	103.0	112.0	120.0	126.0	128.0	128.0	127.0	123.0	119.0	115.0	112.0	109.0	107.0	105.0	103.0	102.0	101.0	101.0	101.0	101.0	102.0	103.0	104.0	104.0	104.0	104.0	104.0	103.0	101.0	100.0	98.0	96.0	93.0	91.0	89.0	88.0	86.0	85.0	84.0	83.0	82.0	81.0	81.0	80.0	80.0	80.0	80.0	80.0	80.0	80.0	81.0	83.0	87.0	93.0	101.0	110.0	118.0	125.0	128.0	129.0	127.0	125.0	120.0	116.0	111.0	108.0	104.0	101.0	99.0	97.0	95.0	93.0	92.0	92.0	93.0	94.0	95.0	96.0	97.0	97.0	97.0	97.0	96.0	95.0	94.0	92.0	91.0	90.0	89.0	88.0	87.0	86.0	86.0	86.0	86.0	86.0	87.0	87.0	87.0	87.0	87.0	87.0	89.0	92.0	97.0	104.0	112.0	120.0	126.0	129.0	131.0	130.0	127.0	124.0	120.0	116.0	112.0	109.0	106.0	103.0	101.0	99.0	98.0	98.0	98.0	98.0	99.0	100.0	101.0	101.0	101.0	100.0	99.0	97.0	95.0	93.0	92.0	90.0	89.0	88.0	87.0	86.0	85.0	85.0	85.0	84.0	84.0	84.0	84.0	84.0	85.0	85.0	86.0	90.0	95.0	103.0	112.0	122.0	130.0	136.0	140.0	140.0	138.0	134.0	129.0	125.0	120.0	116.0	113.0	110.0	108.0	106.0	104.0	103.0	101.0	101.0	100.0	101.0	101.0	102.0	102.0	102.0	102.0	102.0	101.0	100.0	98.0	97.0	95.0	94.0	92.0	91.0	90.0	89.0	88.0	87.0	87.0	86.0	85.0	85.0	84.0	84.0	84.0	85.0	87.0	90.0	96.0	103.0	113.0	122.0	129.0	135.0	138.0	138.0	135.0	132.0	127.0	123.0	119.0	116.0	113.0	110.0	108.0	106.0	105.0	103.0	102.0	101.0	101.0	101.0	101.0	102.0	102.0	102.0	101.0	100.0	100.0	98.0	97.0	129.0	125.0	121.0	118.0	115.0	112.0	109.0	107.0	104.0	102.0	101.0	99.0	99.0	98.0	98.0	98.0	98.0	98.0	98.0	97.0	96.0	94.0	92.0	91.0	89.0	87.0	85.0	84.0	83.0	82.0	81.0	80.0	79.0	79.0	78.0	78.0	78.0	77.0	77.0	77.0	77.0	77.0	78.0	80.0	85.0	92.0	101.0	112.0	122.0	129.0	135.0	137.0	137.0	134.0	129.0	125.0	120.0	115.0	111.0	108.0	105.0	103.0	101.0	100.0	99.0	99.0	100.0	101.0	102.0	102.0	103.0	103.0	102.0	100.0	99.0	97.0	95.0	93.0	91.0	89.0	88.0	86.0	85.0	84.0	83.0	83.0	82.0	81.0	81.0	80.0	79.0	79.0	78.0	77.0	78.0	80.0	85.0	92.0	101.0	110.0	118.0	125.0	127.0	127.0	127.0	124.0	120.0	116.0	112.0	109.0	106.0	104.0	101.0	99.0	98.0	97.0	97.0	98.0	99.0	101.0	102.0	104.0	105.0	105.0	105.0	105.0	104.0	102.0	101.0	99.0	97.0	95.0	94.0	92.0	91.0	89.0	88.0	87.0	86.0	85.0	84.0	83.0	82.0	81.0	81.0	80.0	81.0	83.0	87.0	95.0	104.0	114.0	124.0	131.0	137.0	139.0	138.0	135.0	131.0	127.0	122.0	117.0	113.0	109.0	106.0	102.0	100.0	98.0	96.0	96.0	96.0	96.0	97.0	99.0	100.0	101.0	102.0	103.0	103.0	104.0	104.0	103.0	101.0	99.0	96.0	93.0	89.0	86.0	84.0	82.0	80.0	79.0	79.0	79.0	79.0	80.0	80.0	80.0	81.0	82.0	85.0	90.0	97.0	106.0	116.0	125.0	131.0	135.0	136.0	134.0	131.0	127.0	123.0	118.0	114.0	110.0	106.0	103.0	100.0	98.0	96.0	95.0	95.0	95.0	96.0	97.0	98.0	99.0	100.0	99.0	99.0	98.0	96.0	95.0	93.0	92.0	91.0	90.0	89.0	88.0	86.0	85.0	84.0	83.0	82.0	81.0	80.0	79.0	78.0	78.0	77.0	78.0	81.0	86.0	94.0	103.0	114.0	123.0	130.0	134.0	136.0	135.0	132.0	128.0	124.0	119.0	114.0	110.0	106.0	102.0	99.0	97.0	95.0	95.0	95.0	97.0	98.0	100.0	101.0	102.0	103.0	102.0	101.0	100.0	99.0	97.0	96.0	94.0	93.0	92.0	91.0	90.0	89.0	88.0	88.0	87.0	87.0	87.0	87.0	87.0	89.0	91.0	96.0	102.0	110.0	119.0	127.0	134.0	139.0	141.0	140.0	138.0	134.0	130.0	126.0	122.0	118.0	114.0	110.0	107.0	105.0	103.0	102.0	101.0	102.0	103.0	104.0	105.0	105.0	105.0	104.0	103.0	102.0	101.0	99.0	97.0	96.0	95.0	94.0	93.0	92.0	92.0	91.0	90.0	89.0	88.0	87.0	85.0	84.0	83.0	82.0	84.0	88.0	94.0	104.0	116.0	127.0	136.0	143.0	147.0	148.0	146.0	143.0	138.0	134.0	129.0	126.0	122.0	119.0	116.0	113.0	110.0	107.0	105.0	104.0	103.0	103.0	103.0	103.0	104.0	103.0	103.0	102.0	100.0	98.0	96.0	93.0	90.0	87.0	85.0	82.0	79.0	77.0	75.0	73.0	71.0	70.0	69.0	68.0	67.0	66.0	66.0	66.0	68.0	73.0	81.0	93.0	106.0	119.0	130.0	139.0	144.0	147.0	146.0	144.0	141.0	138.0	134.0	131.0	128.0	125.0	121.0	117.0	114.0	110.0	107.0	105.0	104.0	104.0	104.0	106.0	107.0	109.0	109.0	109.0	107.0	105.0	102.0	100.0	97.0	95.0	94.0	93.0	92.0	91.0	90.0	89.0	88.0	87.0	87.0	86.0	86.0	85.0	84.0	83.0	83.0	83.0	83.0	84.0	85.0	88.0	94.0	102.0	114.0	127.0	139.0	149.0	157.0	161.0	161.0	159.0	156.0	151.0	147.0	142.0	138.0	135.0	131.0	127.0	124.0	121.0	117.0	114.0	111.0	109.0	108.0	106.0	105.0	104.0	102.0	100.0	97.0	93.0	88.0	83.0	76.0	70.0	65.0	60.0	56.0	54.0	52.0	50.0	49.0	48.0	47.0	47.0	46.0	47.0	47.0	48.0	49.0	49.0	49.0	49.0	49.0	49.0	51.0	56.0	63.0	74.0	87.0	100.0	112.0	122.0	128.0	131.0	131.0	129.0	127.0	123.0	119.0	116.0	114.0	113.0	112.0	112.0	113.0	113.0	112.0	112.0	111.0	111.0	110.0	109.0	107.0	105.0	103.0	99.0	95.0	90.0	85.0	81.0	77.0	73.0	71.0	69.0	68.0	67.0	66.0	65.0	65.0	64.0	63.0	62.0	61.0	61.0	60.0	60.0	59.0	59.0	59.0	59.0	59.0	61.0	65.0	72.0	82.0	94.0	107.0	119.0	129.0	136.0	140.0	142.0	142.0	140.0	139.0	136.0	134.0	132.0	129.0	127.0	124.0	121.0	119.0	117.0	116.0	115.0	115.0	114.0	114.0	114.0	113.0	111.0	109.0	107.0	104.0	101.0	98.0	95.0	92.0	88.0	84.0	80.0	75.0	71.0	68.0	67.0	66.0	67.0	67.0	67.0	65.0	64.0	62.0	60.0	59.0	59.0	59.0	61.0	64.0	69.0	78.0	89.0	102.0	114.0	125.0	133.0	138.0	140.0	139.0	137.0	135.0	133.0	132.0	131.0	130.0	129.0	127.0	126.0	124.0	122.0	121.0	120.0	119.0	118.0	118.0	117.0	115.0	114.0	111.0	108.0	104.0	99.0	95.0	90.0	86.0	83.0	81.0	79.0	78.0	76.0	74.0	71.0	69.0	66.0	62.0	58.0	55.0	51.0	47.0	44.0	41.0	39.0	38.0	38.0	40.0	45.0	53.0	64.0	79.0	96.0	113.0	127.0	138.0	146.0	149.0	150.0	148.0	145.0	140.0	136.0	132.0	127.0	123.0	118.0	113.0	107.0	101.0	95.0	91.0	87.0	85.0	85.0	85.0	85.0	85.0	84.0	84.0	82.0	80.0	78.0	76.0	74.0	72.0	71.0	69.0	68.0	66.0	65.0	64.0	64.0	63.0	63.0	62.0	62.0	62.0	62.0	62.0	63.0	64.0	66.0	68.0	72.0	78.0	87.0	98.0	111.0	125.0	136.0	145.0	151.0	155.0	156.0	155.0	152.0	149.0	144.0	140.0	135.0	131.0	127.0	124.0	120.0	116.0	114.0	112.0	110.0	110.0	109.0	109.0	108.0	106.0	104.0	102.0	99.0	97.0	94.0	92.0	89.0	86.0	83.0	80.0	77.0	74.0	71.0	68.0	65.0	62.0	59.0	56.0	54.0	52.0	51.0	50.0	50.0	51.0	52.0	53.0	56.0	61.0	69.0	80.0	94.0	108.0	121.0	130.0	137.0	140.0	139.0	136.0	132.0	127.0	124.0	120.0	117.0	114.0	111.0	108.0	105.0	103.0	102.0	101.0	103.0	105.0	107.0	110.0	112.0	113.0	113.0	112.0	111.0	108.0	105.0	102.0	98.0	94.0	91.0	87.0	84.0	81.0	79.0	76.0	74.0	72.0	70.0	68.0	67.0	66.0	66.0	66.0	66.0	68.0	71.0	76.0	84.0	95.0	108.0	121.0	131.0	140.0	146.0	149.0	149.0	147.0	143.0	138.0	132.0	127.0	123.0	118.0	113.0	108.0	105.0	102.0	99.0	98.0	97.0	97.0	97.0	97.0	96.0	96.0	95.0	94.0	92.0	91.0	89.0	86.0	84.0	82.0	81.0	79.0	77.0	76.0	75.0	75.0	74.0	74.0	74.0	73.0	73.0	74.0	74.0	75.0	77.0	81.0	88.0	98.0	111.0	125.0	138.0	148.0	156.0	159.0	159.0	156.0	152.0	148.0	143.0	139.0	134.0	130.0	127.0	123.0	119.0	116.0	113.0	111.0	110.0	109.0	108.0	108.0	108.0	108.0	107.0	106.0	105.0	103.0	102.0	99.0	97.0	95.0	92.0	90.0	89.0	87.0	86.0	85.0	85.0	84.0	83.0	83.0	82.0	82.0	81.0	81.0	81.0	83.0	87.0	94.0	104.0	117.0	130.0	143.0	153.0	161.0	164.0	165.0	164.0	160.0	156.0	151.0	146.0	140.0	135.0	130.0	126.0	122.0	119.0	117.0	116.0	115.0	115.0	115.0	116.0	115.0	115.0	114.0	113.0	111.0	108.0	105.0	102.0	98.0	95.0	92.0	89.0	86.0	84.0	82.0	80.0	79.0	77.0	75.0	73.0	72.0	71.0	70.0	69.0	68.0	69.0	71.0	77.0	86.0	98.0	112.0	126.0	136.0	145.0	150.0	152.0	151.0	148.0	143.0	138.0	132.0	127.0	123.0	118.0	113.0	109.0	105.0	101.0	98.0	96.0	94.0	93.0	93.0	93.0	93.0	93.0	92.0	92.0	91.0	90.0	89.0	87.0	85.0	83.0	80.0	77.0	74.0	72.0	69.0	68.0	66.0	64.0	63.0	61.0	60.0	59.0	59.0	58.0	59.0	61.0	65.0	72.0	82.0	94.0	106.0	119.0	128.0	135.0	139.0	140.0	138.0	135.0	131.0	127.0	122.0	118.0	113.0	109.0	105.0	102.0	98.0	96.0	95.0	94.0	94.0	94.0	94.0	95.0	95.0	94.0	93.0	92.0	91.0	89.0	87.0	85.0	84.0	83.0	82.0	81.0	80.0	79.0	78.0	77.0	77.0	76.0	75.0	75.0	74.0	74.0	74.0	75.0	78.0	83.0	91.0	101.0	113.0	124.0	132.0	139.0	143.0	144.0	142.0	139.0	135.0	130.0	125.0	120.0	116.0	112.0	108.0	106.0	104.0	103.0	103.0	104.0	106.0	108.0	109.0	110.0	110.0	111.0	111.0	113.0	114.0	115.0	116.0	115.0	112.0	107.0	101.0	96.0	91.0	87.0	83.0	80.0	77.0	74.0	71.0	67.0	65.0	63.0	62.0	63.0	65.0	70.0	78.0	89.0	102.0	116.0	128.0	139.0	147.0	152.0	153.0	152.0	148.0	144.0	139.0	135.0	131.0	127.0	124.0	120.0	116.0	112.0	108.0	105.0	103.0	101.0	101.0	100.0	100.0	100.0	99.0	98.0	96.0	93.0	91.0	88.0	85.0	82.0	79.0	77.0	75.0	73.0	71.0	70.0	68.0	67.0	66.0	65.0	64.0	63.0	62.0	62.0	61.0	61.0	62.0	64.0	68.0	75.0	86.0	99.0	114.0	127.0	141.0	151.0	158.0	161.0	162.0	160.0	157.0	153.0	148.0	143.0	138.0	133.0	129.0	126.0	123.0	120.0	117.0	115.0	114.0	112.0	111.0	109.0	107.0	106.0	103.0	101.0	98.0	94.0	89.0	85.0	81.0	76.0	73.0	70.0	68.0	65.0	63.0	61.0	60.0	59.0	58.0	57.0	57.0	57.0	56.0	55.0	54.0	53.0	52.0	52.0	54.0	58.0	66.0	77.0	90.0	103.0	117.0	127.0	135.0	141.0	144.0	145.0	145.0	143.0	140.0	136.0	133.0	128.0	125.0	121.0	117.0	113.0	108.0	105.0	102.0	99.0	98.0	97.0	97.0	96.0	96.0	95.0	94.0	93.0	92.0	90.0	88.0	87.0	84.0	82.0	80.0	78.0	77.0	76.0	75.0	74.0	73.0	72.0	71.0	70.0	69.0	68.0	68.0	67.0	66.0	65.0	64.0	64.0	66.0	70.0	78.0	88.0	101.0	114.0	127.0	136.0	143.0	147.0	148.0	147.0	144.0	140.0	135.0	131.0	127.0	124.0	121.0	118.0	115.0	112.0	110.0	108.0	108.0	108.0	109.0	110.0	110.0	111.0	110.0	109.0	108.0	106.0	103.0	100.0	95.0	91.0	85.0	80.0	75.0	70.0	66.0	62.0	60.0	58.0	57.0	57.0	56.0	55.0	54.0	52.0	51.0	50.0	50.0	50.0	51.0	52.0	54.0	57.0	63.0	71.0	83.0	97.0	113.0	129.0	144.0	156.0	164.0	169.0	169.0	168.0	164.0	159.0	154.0	149.0	144.0	139.0	134.0	128.0	124.0	119.0	115.0	111.0	108.0	106.0	104.0	102.0	100.0	98.0	96.0	93.0	90.0	87.0	84.0	81.0	78.0	75.0	72.0	70.0	68.0	66.0	65.0	64.0	63.0	63.0	62.0	62.0	60.0	59.0	57.0	56.0	56.0	55.0	55.0	55.0	55.0	56.0	59.0	65.0	74.0	87.0	102.0	117.0	129.0	140.0	146.0	150.0	151.0	149.0	145.0	141.0	135.0	130.0	126.0	121.0	116.0	112.0	109.0	106.0	105.0	105.0	105.0	106.0	107.0	108.0	108.0	108.0	108.0	106.0	105.0	103.0	100.0	97.0	94.0	91.0	89.0	86.0	83.0	81.0	78.0	76.0	74.0	72.0	71.0	70.0	69.0	68.0	66.0	65.0	63.0	62.0	61.0	61.0	61.0	62.0	65.0	70.0	78.0	90.0	105.0	121.0	134.0	147.0	155.0	160.0	161.0	159.0	156.0	151.0	145.0	139.0	133.0	127.0	122.0	116.0	111.0	106.0	103.0	100.0	99.0	99.0	99.0	100.0	101.0	102.0	103.0	103.0	102.0	100.0	98.0	95.0	92.0	89.0	87.0	85.0	84.0	83.0	82.0	81.0	80.0	79.0	78.0	77.0	77.0	76.0	76.0	76.0	76.0	76.0	75.0	74.0	73.0	72.0	74.0	79.0	88.0	101.0	115.0	129.0	142.0	152.0	159.0	162.0	162.0	159.0	154.0	148.0	142.0	136.0	130.0	126.0	121.0	117.0	113.0	109.0	106.0	104.0	103.0	102.0	102.0	101.0	101.0	99.0	98.0	96.0	94.0	92.0	91.0	89.0	88.0	86.0	85.0	82.0	79.0	76.0	73.0	70.0	67.0	64.0	61.0	59.0	57.0	56.0	56.0	56.0	58.0	60.0	62.0	67.0	74.0	84.0	97.0	112.0	127.0	141.0	151.0	158.0	160.0	159.0	155.0	150.0	144.0	137.0	131.0	126.0	121.0	115.0	110.0	105.0	101.0	98.0	97.0	96.0	96.0	96.0	97.0	97.0	97.0	97.0	97.0	96.0	94.0	93.0	91.0	89.0	87.0	86.0	85.0	85.0	85.0	85.0	84.0	84.0	83.0	83.0	83.0	82.0	82.0	81.0	80.0	79.0	78.0	79.0	82.0	89.0	100.0	113.0	126.0	138.0	148.0	155.0	158.0	158.0	156.0	152.0	148.0	142.0	137.0	131.0	126.0	120.0	114.0	108.0	103.0	99.0	96.0	94.0	94.0	94.0	95.0	96.0	96.0	96.0	95.0	94.0	92.0	90.0	88.0	86.0	84.0	82.0	80.0	77.0	75.0	73.0	71.0	69.0	68.0	67.0	67.0	67.0	66.0	66.0	66.0	67.0	69.0	75.0	84.0	95.0	109.0	122.0	133.0	142.0	147.0	150.0	151.0	151.0	149.0	146.0	142.0	138.0	133.0	128.0	126.0	123.0	122.0	121.0	120.0	119.0	119.0	119.0	118.0	118.0	118.0	117.0	115.0	113.0	109.0	105.0	101.0	96.0	91.0	87.0	83.0	80.0	76.0	74.0	71.0	69.0	67.0	65.0	63.0	61.0	60.0	58.0	57.0	56.0	56.0	58.0	62.0	69.0	80.0	94.0	109.0	125.0	137.0	148.0	155.0	158.0	158.0	156.0	152.0	147.0	142.0	137.0	132.0	127.0	124.0	120.0	116.0	111.0	107.0	104.0	101.0	100.0	99.0	99.0	100.0	99.0	98.0	97.0	94.0	91.0	88.0	85.0	82.0	79.0	77.0	75.0	73.0	71.0	69.0	68.0	66.0	65.0	63.0	62.0	61.0	60.0	59.0	59.0	62.0	67.0	76.0	89.0	103.0	119.0	132.0	143.0	150.0	154.0	153.0	150.0	145.0	139.0	133.0	128.0	124.0	120.0	116.0	113.0	110.0	108.0	106.0	106.0	106.0	107.0	108.0	109.0	110.0	109.0	108.0	106.0	103.0	100.0	97.0	93.0	89.0	86.0	83.0	80.0	77.0	74.0	72.0	70.0	68.0	66.0	65.0	63.0	62.0	60.0	59.0	59.0	61.0	66.0	75.0	88.0	103.0	120.0	134.0	147.0	155.0	160.0	161.0	160.0	157.0	152.0	147.0	142.0	137.0	133.0	128.0	124.0	119.0	115.0	111.0	108.0	107.0	107.0	109.0	110.0	111.0	111.0	109.0	106.0	102.0	98.0	94.0	90.0	86.0	82.0	78.0	74.0	71.0	67.0	64.0	62.0	61.0	59.0	57.0	55.0	54.0	52.0	52.0	52.0	53.0	55.0	59.0	66.0	76.0	89.0	104.0	121.0	136.0	149.0	158.0	163.0	164.0	162.0	158.0	153.0	147.0	142.0	136.0	130.0	125.0	119.0	114.0	108.0	103.0	99.0	96.0	94.0	94.0	94.0	94.0	94.0	93.0	92.0	90.0	87.0	84.0	81.0	79.0	77.0	76.0	75.0	74.0	73.0	72.0	72.0	71.0	71.0	70.0	70.0	68.0	67.0	66.0	64.0	63.0	62.0	61.0	60.0	59.0	60.0	65.0	74.0	88.0	105.0	123.0	140.0	153.0	162.0	165.0	163.0	158.0	151.0	144.0	137.0	131.0	127.0	124.0	120.0	116.0	112.0	108.0	104.0	101.0	98.0	96.0	95.0	94.0	94.0	94.0	94.0	93.0	92.0	90.0	88.0	86.0	84.0	81.0	79.0	76.0	74.0	72.0	69.0	66.0	63.0	61.0	59.0	58.0	58.0	59.0	60.0	61.0	61.0	61.0	59.0	58.0	58.0	61.0	68.0	79.0	94.0	112.0	129.0	146.0	160.0	169.0	174.0	175.0	173.0	168.0	162.0	155.0	148.0	140.0	133.0	127.0	121.0	115.0	110.0	105.0	101.0	98.0	96.0	95.0	94.0	93.0	92.0	91.0	90.0	88.0	86.0	83.0	80.0	77.0	74.0	71.0	69.0	67.0	66.0	64.0	63.0	62.0	60.0	59.0	57.0	55.0	53.0	52.0	51.0	50.0	50.0	50.0	51.0	53.0	59.0	68.0	81.0	97.0	114.0	130.0	144.0	154.0	159.0	160.0	159.0	154.0	149.0	144.0	139.0	134.0	130.0	127.0	123.0	118.0	115.0	111.0	109.0	108.0	107.0	108.0	108.0	109.0	108.0	108.0	107.0	105.0	103.0	100.0	97.0	94.0	90.0	86.0	83.0	79.0	76.0	73.0	71.0	69.0	67.0	65.0	63.0	62.0	60.0	58.0	57.0	55.0	54.0	53.0	53.0	53.0	55.0	60.0	68.0	80.0	95.0	112.0	129.0	143.0	154.0	161.0	163.0	162.0	158.0	152.0	146.0	141.0	135.0	130.0	126.0	121.0	116.0	112.0	107.0	104.0	101.0	99.0	98.0	97.0	96.0	94.0	92.0	91.0	89.0	88.0	86.0	85.0	83.0	80.0	76.0	73.0	70.0	66.0	64.0	61.0	59.0	57.0	55.0	54.0	53.0	52.0	52.0	53.0	54.0	55.0	56.0	58.0	60.0	64.0	71.0	83.0	97.0	114.0	130.0	146.0	157.0	165.0	168.0	167.0	164.0	158.0	151.0	143.0	135.0	128.0	122.0	115.0	110.0	106.0	103.0	101.0	100.0	100.0	101.0	102.0	104.0	106.0	108.0	109.0	110.0	109.0	108.0	106.0	102.0	99.0	95.0	91.0	87.0	84.0	80.0	77.0	74.0	70.0	67.0	64.0	61.0	59.0	57.0	56.0	55.0	54.0	53.0	53.0	54.0	58.0	65.0	77.0	93.0	111.0	128.0	145.0	158.0	167.0	171.0	171.0	168.0	162.0	155.0	148.0	140.0	132.0	125.0	119.0	113.0	108.0	104.0	101.0	100.0	100.0	100.0	101.0	101.0	102.0	101.0	100.0	98.0	96.0	93.0	90.0	87.0	85.0	82.0	80.0	78.0	76.0	74.0	71.0	69.0	67.0	66.0	65.0	65.0	65.0	65.0	65.0	65.0	67.0	71.0	78.0	90.0	105.0	122.0	138.0	152.0	163.0	170.0	173.0	172.0	168.0	162.0	155.0	148.0	140.0	133.0	127.0	121.0	114.0	108.0	102.0	97.0	93.0	90.0	88.0	87.0	87.0	86.0	86.0	85.0	84.0	82.0	81.0	78.0	76.0	74.0	72.0	71.0	70.0	69.0	70.0	71.0	73.0	75.0	75.0	74.0	70.0	66.0	61.0	58.0	57.0	61.0	70.0	85.0	104.0	125.0	145.0	162.0	175.0	182.0	185.0	183.0	178.0	172.0	165.0	157.0	151.0	145.0	139.0	134.0	129.0	125.0	121.0	118.0	116.0	113.0	109.0	104.0	99.0	94.0	89.0	85.0	81.0	78.0	75.0	73.0	71.0	70.0	69.0	68.0	68.0	67.0	67.0	68.0	68.0	69.0	68.0	65.0	60.0	56.0	52.0	52.0	55.0	64.0	77.0	93.0	112.0	128.0	143.0	155.0	163.0	167.0	168.0	167.0	164.0	159.0	154.0	147.0	140.0	133.0	126.0	120.0	115.0	111.0	108.0	106.0	104.0	102.0	100.0	99.0	97.0	95.0	93.0	91.0	88.0	85.0	82.0	78.0	75.0	71.0	68.0	65.0	63.0	61.0	61.0	62.0	63.0	65.0	66.0	67.0	68.0	70.0	75.0	84.0	96.0	111.0	127.0	141.0	154.0	163.0	167.0	168.0	166.0	161.0	154.0	147.0	138.0	130.0	122.0	114.0	106.0	100.0	95.0	91.0	87.0	85.0	82.0	80.0	80.0	79.0	79.0	79.0	79.0	78.0	76.0	74.0	72.0	70.0	68.0	66.0	64.0	62.0	61.0	60.0	59.0	58.0	58.0	57.0	55.0	54.0	54.0	56.0	61.0	69.0	81.0	96.0	113.0	128.0	142.0	152.0	158.0	161.0	160.0	156.0	151.0	145.0	139.0	133.0	127.0	122.0	117.0	112.0	107.0	104.0	102.0	101.0	101.0	102.0	103.0	103.0	103.0	102.0	100.0	98.0	96.0	93.0	90.0	87.0	84.0	80.0	77.0	73.0	70.0	67.0	64.0	62.0	60.0	59.0	58.0	58.0	61.0	66.0	75.0	87.0	102.0	117.0	130.0	141.0	149.0	153.0	153.0	151.0	145.0	139.0	132.0	126.0	119.0	113.0	108.0	103.0	100.0	97.0	95.0	94.0	94.0	94.0	95.0	95.0	94.0	92.0	88.0	85.0	81.0	77.0	75.0	73.0	71.0	69.0	68.0	67.0	66.0	66.0	65.0	64.0	63.0	62.0	61.0	61.0	62.0	64.0	70.0	79.0	92.0	109.0	128.0	147.0	163.0	174.0	180.0	181.0	178.0	173.0	166.0	158.0	151.0	144.0	137.0	131.0	126.0	120.0	115.0	110.0	106.0	103.0	100.0	99.0	98.0	97.0	97.0	96.0	95.0	92.0	89.0	85.0	81.0	77.0	74.0	72.0	70.0	67.0	64.0	61.0	58.0	56.0	54.0	53.0	53.0	53.0	54.0	54.0	56.0	60.0	66.0	76.0	89.0	105.0	122.0	138.0	151.0	160.0	163.0	163.0	159.0	153.0	147.0	141.0	136.0	131.0	126.0	120.0	113.0	107.0	102.0	97.0	93.0	89.0	85.0	81.0	78.0	76.0	76.0	76.0	76.0	75.0	74.0	72.0	69.0	66.0	62.0	59.0	57.0	54.0	52.0	50.0	49.0	48.0	47.0	46.0	45.0	43.0	42.0	41.0	40.0	40.0	40.0	41.0	44.0	50.0	60.0	73.0	89.0	106.0	122.0	133.0	142.0	145.0	144.0	139.0	133.0	126.0	119.0	113.0	108.0	103.0	99.0	95.0	92.0	88.0	85.0	83.0	81.0	79.0	79.0	78.0	77.0	76.0	75.0	73.0	71.0	69.0	67.0	64.0	62.0	60.0	58.0	56.0	55.0	53.0	52.0	52.0	51.0	51.0	51.0	50.0	50.0	50.0	50.0	50.0	50.0	50.0	50.0	51.0	52.0	55.0	60.0	68.0	79.0	92.0	105.0	117.0	126.0	129.0	130.0	128.0	125.0	121.0	116.0	112.0	108.0	103.0	99.0	96.0	93.0	91.0	90.0	89.0	88.0	88.0	89.0	90.0	91.0	92.0	93.0	94.0	94.0	92.0	90.0	88.0	84.0	81.0	78.0	75.0	72.0	69.0	67.0	65.0	63.0	63.0	62.0	63.0	63.0	64.0	65.0	66.0	67.0	68.0	69.0	70.0	72.0	76.0	82.0	91.0	101.0	112.0	122.0	128.0	131.0	131.0	129.0	125.0	120.0	115.0	111.0	107.0	104.0	101.0	99.0	97.0	95.0	94.0	93.0	93.0	93.0	94.0	96.0	98.0	99.0	100.0	101.0	100.0	99.0	98.0	96.0	93.0	91.0	89.0	87.0	85.0	85.0	84.0	85.0	86.0	87.0	88.0	88.0	88.0	88.0	87.0	87.0	87.0	87.0	88.0	89.0	91.0	96.0	103.0	112.0	122.0	129.0	136.0	139.0	138.0	135.0	130.0	125.0	120.0	116.0	113.0	110.0	108.0	105.0	103.0	100.0	98.0	97.0	96.0	96.0	91.0	95.0	101.0	109.0	118.0	127.0	134.0	139.0	141.0	140.0	137.0	133.0	127.0	123.0	118.0	114.0	111.0	109.0	108.0	107.0	105.0	104.0	103.0	102.0	101.0	101.0	101.0	101.0	101.0	101.0	101.0	101.0	101.0	101.0	100.0	99.0	98.0	97.0	96.0	95.0	93.0	92.0	91.0	91.0	90.0	90.0	91.0	91.0	92.0	93.0	93.0	93.0	94.0	94.0	95.0	96.0	98.0	101.0	106.0	114.0	122.0	130.0	137.0	142.0	144.0	143.0	139.0	133.0	127.0	122.0	117.0	113.0	109.0	107.0	106.0	105.0	105.0	104.0	105.0	105.0	105.0	106.0	107.0	108.0	109.0	110.0	110.0	110.0	110.0	110.0	109.0	108.0	107.0	106.0	104.0	103.0	102.0	101.0	100.0	99.0	98.0	97.0	97.0	96.0	96.0	95.0	95.0	95.0	95.0	95.0	95.0	95.0	97.0	101.0	107.0	114.0	122.0	128.0	132.0	134.0	133.0	130.0	126.0	121.0	116.0	111.0	107.0	104.0	101.0	99.0	97.0	96.0	95.0	95.0	95.0	97.0	98.0	100.0	101.0	102.0	103.0	103.0	103.0	102.0	101.0	100.0	100.0	99.0	98.0	97.0	96.0	95.0	94.0	93.0	93.0	92.0	92.0	92.0	91.0	91.0	90.0	90.0	90.0	90.0	91.0	94.0	99.0	106.0	115.0	123.0	129.0	133.0	134.0	133.0	129.0	125.0	121.0	116.0	112.0	108.0	106.0	104.0	102.0	102.0	101.0	100.0	100.0	99.0	99.0	99.0	100.0	101.0	102.0	103.0	103.0	103.0	103.0	103.0	102.0	101.0	101.0	100.0	99.0	98.0	97.0	96.0	95.0	94.0	93.0	92.0	92.0	91.0	91.0	91.0	91.0	91.0	92.0	94.0	98.0	103.0	111.0	119.0	127.0	133.0	137.0	137.0	136.0	132.0	128.0	125.0	121.0	118.0	115.0	113.0	111.0	109.0	108.0	106.0	105.0	103.0	103.0	102.0	102.0	102.0	103.0	102.0	102.0	102.0	101.0	100.0	100.0	99.0	97.0	96.0	95.0	94.0	93.0	92.0	92.0	92.0	92.0	92.0	92.0	92.0	92.0	92.0	92.0	93.0	93.0	94.0	96.0	100.0	106.0	114.0	121.0	127.0	131.0	132.0	130.0	127.0	123.0	119.0	114.0	110.0	106.0	103.0	101.0	99.0	98.0	97.0	97.0	97.0	97.0	98.0	99.0	101.0	102.0	104.0	105.0	105.0	106.0	106.0	105.0	105.0	104.0	104.0	104.0	104.0	104.0	103.0	102.0	101.0	100.0	99.0	97.0	96.0	95.0	94.0	94.0	94.0	94.0	95.0	98.0	102.0	109.0	117.0	125.0	132.0	137.0	139.0	139.0	137.0	133.0	128.0	125.0	120.0	117.0	113.0	111.0	108.0	106.0	104.0	102.0	101.0	101.0	101.0	101.0	102.0	103.0	103.0	103.0	102.0	101.0	99.0	98.0	96.0	94.0	92.0	91.0	90.0	89.0	88.0	88.0	88.0	87.0	87.0	86.0	85.0	85.0	85.0	85.0	86.0	89.0	93.0	99.0	106.0	113.0	120.0	125.0	127.0	127.0	127.0	124.0	120.0	116.0	113.0	109.0	106.0	103.0	101.0	99.0	97.0	96.0	95.0	95.0	96.0	98.0	99.0	100.0	101.0	101.0	101.0	101.0	100.0	99.0	98.0	97.0	95.0	94.0	93.0	92.0	91.0	90.0	89.0	88.0	87.0	87.0	86.0	86.0	86.0	86.0	86.0	87.0	90.0	94.0	100.0	108.0	117.0	125.0	130.0	133.0	134.0	132.0	128.0	125.0	121.0	117.0	114.0	112.0	110.0	109.0	107.0	106.0	106.0	106.0	106.0	106.0	107.0	107.0	107.0	107.0	107.0	106.0	105.0	103.0	102.0	100.0	98.0	96.0	95.0	94.0	94.0	94.0	94.0	94.0	95.0	96.0	97.0	99.0	100.0	100.0	101.0	101.0	101.0	103.0	107.0	113.0	120.0	128.0	136.0	142.0	146.0	147.0	145.0	141.0	137.0	132.0	127.0	125.0	121.0	119.0	116.0	114.0	112.0	111.0	110.0	109.0	109.0	110.0	110.0	111.0	112.0	112.0	112.0	112.0	112.0	111.0	110.0	109.0	108.0	107.0	106.0	104.0	102.0	101.0	98.0	96.0	94.0	91.0	88.0	85.0	82.0	80.0	77.0	75.0	74.0	74.0	76.0	80.0	87.0	96.0	105.0	113.0	118.0	121.0	121.0	119.0	115.0	111.0	106.0	103.0	100.0	98.0	98.0	99.0	100.0	101.0	101.0	101.0	100.0	99.0	97.0	96.0	96.0	96.0	96.0	95.0	95.0	94.0	92.0	91.0	90.0	89.0	88.0	89.0	89.0	90.0	92.0	93.0	94.0	94.0	95.0	95.0	95.0	95.0	95.0	94.0	95.0	96.0	99.0	105.0	113.0	122.0	130.0	137.0	141.0	141.0	139.0	133.0	127.0	121.0	115.0	109.0	104.0	100.0	97.0	94.0	92.0	91.0	91.0	91.0	92.0	94.0	95.0	96.0	97.0	97.0	97.0	97.0	96.0	96.0	97.0	97.0	97.0	97.0	97.0	96.0	96.0	96.0	96.0	96.0	96.0	96.0	96.0	95.0	95.0	94.0	93.0	92.0	94.0	98.0	106.0	115.0	126.0	135.0	143.0	148.0	150.0	150.0	148.0	146.0	142.0	138.0	134.0	130.0	127.0	123.0	119.0	116.0	113.0	111.0	110.0	109.0	108.0	108.0	108.0	108.0	108.0	106.0	105.0	103.0	101.0	99.0	96.0	94.0	91.0	88.0	84.0	81.0	78.0	75.0	73.0	71.0	69.0	68.0	67.0	66.0	66.0	66.0	67.0	69.0	74.0	82.0	92.0	104.0	116.0	127.0	133.0	138.0	139.0	137.0	134.0	129.0	126.0	122.0	118.0	115.0	112.0	109.0	107.0	106.0	105.0	105.0	106.0	107.0	108.0	110.0	111.0	111.0	111.0	111.0	110.0	108.0	105.0	102.0	99.0	95.0	91.0	87.0	83.0	80.0	78.0	76.0	74.0	73.0	71.0	70.0	70.0	69.0	68.0	68.0	68.0	70.0	74.0	81.0	90.0	101.0	112.0	122.0	128.0	131.0	132.0	131.0	128.0	125.0	122.0	119.0	116.0	114.0	112.0	110.0	107.0	104.0	101.0	99.0	96.0	93.0	91.0	89.0	88.0	86.0	85.0	83.0	82.0	80.0	79.0	77.0	76.0	74.0	73.0	72.0	71.0	69.0	68.0	67.0	66.0	65.0	64.0	63.0	63.0	62.0	62.0	62.0	63.0	63.0	65.0	68.0	73.0	81.0	90.0	100.0	109.0	117.0	122.0	124.0	123.0	119.0	115.0	110.0	105.0	100.0	96.0	92.0	89.0	87.0	84.0	83.0	82.0	82.0	82.0	83.0	85.0	87.0	88.0	90.0	91.0	92.0	92.0	92.0	91.0	90.0	88.0	87.0	86.0	84.0	83.0	82.0	81.0	79.0	78.0	77.0	75.0	74.0	73.0	72.0	72.0	73.0	76.0	82.0	89.0	98.0	106.0	114.0	120.0	122.0	122.0	120.0	117.0	112.0	108.0	104.0	100.0	96.0	93.0	91.0	89.0	88.0	88.0	88.0	89.0	89.0	90.0	90.0	90.0	90.0	89.0	88.0	86.0	85.0	83.0	82.0	81.0	80.0	80.0	79.0	79.0	79.0	79.0	79.0	79.0	79.0	79.0	79.0	79.0	80.0	80.0	82.0	85.0	91.0	100.0	110.0	120.0	128.0	135.0	138.0	138.0	135.0	131.0	127.0	122.0	117.0	113.0	109.0	106.0	103.0	100.0	97.0	94.0	92.0	90.0	88.0	88.0	88.0	88.0	89.0	90.0	91.0	91.0	92.0	91.0	91.0	90.0	89.0	88.0	87.0	87.0	86.0	85.0	84.0	83.0	83.0	82.0	81.0	80.0	79.0	79.0	78.0	78.0	80.0	83.0	89.0	97.0	105.0	114.0	121.0	125.0	126.0	124.0	120.0	115.0	109.0	104.0	99.0	95.0	92.0	90.0	88.0	87.0	86.0	85.0	85.0	85.0	85.0	86.0	88.0	89.0	91.0	92.0	92.0	93.0	93.0	93.0	92.0	92.0	91.0	90.0	89.0	88.0	87.0	85.0	84.0	83.0	82.0	81.0	80.0	80.0	80.0	79.0	79.0	78.0	79.0	82.0	87.0	94.0	103.0	112.0	121.0	127.0	129.0	129.0	127.0	125.0	120.0	116.0	112.0	109.0	107.0	104.0	102.0	101.0	99.0	97.0	96.0	95.0	94.0	93.0	93.0	94.0	94.0	95.0	95.0	95.0	95.0	94.0	94.0	93.0	92.0	91.0	90.0	89.0	88.0	88.0	87.0	87.0	87.0	87.0	88.0	88.0	88.0	88.0	88.0	87.0	86.0	86.0	86.0	87.0	91.0	97.0	104.0	111.0	116.0	120.0	120.0	119.0	117.0	114.0	110.0	107.0	105.0	103.0	102.0	100.0	100.0	99.0	98.0	97.0	97.0	97.0	97.0	97.0	98.0	98.0	98.0	98.0	98.0	98.0	97.0	97.0	96.0	95.0	93.0	92.0	91.0	90.0	89.0	89.0	89.0	89.0	89.0	89.0	89.0	89.0	88.0	88.0	89.0	91.0	95.0	101.0	108.0	116.0	123.0	127.0	130.0	131.0	129.0	127.0	123.0	118.0	114.0	110.0	107.0	104.0	101.0	99.0	97.0	95.0	94.0	94.0	94.0	95.0	95.0	96.0	97.0	98.0	98.0	98.0	98.0	97.0	96.0	95.0	94.0	93.0	92.0	91.0	90.0	89.0	89.0	88.0	88.0	89.0	89.0	90.0	91.0	92.0	92.0	93.0	95.0	98.0	102.0	109.0	117.0	125.0	130.0	133.0	134.0	132.0	129.0	125.0	120.0	115.0	111.0	107.0	104.0	102.0	100.0	98.0	96.0	95.0	95.0	94.0	95.0	95.0	96.0	97.0	99.0	100.0	101.0	101.0	102.0	102.0	102.0	102.0	101.0	100.0	99.0	98.0	97.0	96.0	96.0	95.0	94.0	93.0	93.0	93.0	92.0	92.0	92.0	92.0	94.0	96.0	101.0	107.0	115.0	121.0	127.0	129.0	130.0	128.0	126.0	122.0	117.0	113.0	109.0	107.0	104.0	102.0	101.0	99.0	98.0	97.0	96.0	96.0	97.0	98.0	98.0	99.0	99.0	100.0	100.0	100.0	99.0	99.0	98.0	97.0	95.0	94.0	92.0	91.0	90.0	90.0	89.0	89.0	89.0	89.0	89.0	88.0	88.0	87.0	88.0	88.0	91.0	95.0	102.0	109.0	118.0	125.0	130.0	132.0	133.0	131.0	127.0	124.0	119.0	115.0	111.0	108.0	106.0	104.0	102.0	101.0	100.0	99.0	99.0	99.0	99.0	100.0	100.0	100.0	101.0	101.0	100.0	100.0	99.0	98.0	97.0	96.0	95.0	94.0	94.0	93.0	93.0	93.0	93.0	93.0	93.0	92.0	92.0	92.0	91.0	91.0	92.0	95.0	99.0	104.0	111.0	118.0	124.0	127.0	129.0	129.0	127.0	125.0	121.0	117.0	114.0	110.0	108.0	106.0	104.0	102.0	101.0	100.0	99.0	100.0	100.0	101.0	102.0	103.0	103.0	103.0	102.0	101.0	100.0	100.0	99.0	99.0	99.0	99.0	99.0	98.0	98.0	97.0	96.0	95.0	94.0	93.0	93.0	92.0	92.0	93.0	94.0	98.0	103.0	110.0	117.0	124.0	128.0	131.0	131.0	130.0	127.0	123.0	118.0	114.0	110.0	106.0	104.0	102.0	100.0	98.0	98.0	97.0	98.0	98.0	99.0	100.0	100.0	101.0	101.0	100.0	100.0	99.0	98.0	97.0	96.0	95.0	95.0	94.0	93.0	92.0	91.0	91.0	90.0	90.0	90.0	89.0	89.0	89.0	90.0	93.0	97.0	103.0	111.0	119.0	126.0	131.0	134.0	134.0	133.0	130.0	127.0	124.0	121.0	118.0	115.0	113.0	111.0	109.0	107.0	106.0	105.0	105.0	106.0	106.0	107.0	107.0	107.0	107.0	107.0	106.0	105.0	104.0	102.0	100.0	98.0	96.0	95.0	93.0	92.0	90.0	89.0	88.0	88.0	87.0	87.0	87.0	86.0	86.0	87.0	89.0	93.0	99.0	107.0	115.0	123.0	129.0	133.0	134.0	134.0	132.0	129.0	127.0	124.0	122.0	119.0	117.0	115.0	113.0	111.0	109.0	108.0	107.0	107.0	107.0	107.0	108.0	108.0	108.0	108.0	107.0	106.0	105.0	103.0	102.0	101.0	100.0	99.0	98.0	97.0	97.0	96.0	95.0	94.0	93.0	91.0	90.0	89.0	89.0	89.0	89.0	91.0	95.0	100.0	106.0	113.0	119.0	124.0	126.0	126.0	124.0	121.0	118.0	114.0	111.0	109.0	106.0	104.0	103.0	101.0	100.0	100.0	101.0	101.0	102.0	104.0	105.0	106.0	106.0	107.0	107.0	106.0	105.0	103.0	101.0	99.0	98.0	97.0	96.0	95.0	94.0	93.0	91.0	90.0	88.0	87.0	85.0	83.0	82.0	81.0	81.0	83.0	86.0	92.0	100.0	107.0	114.0	120.0	123.0	124.0	123.0	121.0	119.0	116.0	113.0	111.0	108.0	106.0	104.0	102.0	101.0	101.0	102.0	103.0	105.0	107.0	109.0	110.0	111.0	111.0	111.0	111.0	110.0	109.0	108.0	107.0	106.0	104.0	103.0	102.0	100.0	99.0	98.0	96.0	95.0	94.0	93.0	92.0	93.0	96.0	101.0	108.0	118.0	127.0	137.0	144.0	150.0	153.0	153.0	153.0	151.0	149.0	148.0	147.0	145.0	144.0	141.0	