84.0	84.0	85.0	85.0	85.0	85.0	86.0	87.0	90.0	95.0	101.0	108.0	114.0	118.0	119.0	119.0	117.0	114.0	112.0	109.0	107.0	106.0	104.0	102.0	100.0	98.0	96.0	95.0	94.0	93.0	92.0	92.0	92.0	92.0	92.0	92.0	92.0	92.0	93.0	93.0	94.0	94.0	94.0	94.0	94.0	93.0	92.0	91.0	91.0	91.0	91.0	92.0	92.0	92.0	92.0	94.0	97.0	100.0	105.0	109.0	112.0	114.0	115.0	114.0	113.0	113.0	112.0	111.0	110.0	109.0	107.0	105.0	103.0	101.0	99.0	98.0	97.0	96.0	96.0	97.0	97.0	98.0	98.0	97.0	96.0	95.0	93.0	91.0	89.0	88.0	86.0	86.0	85.0	84.0	84.0	83.0	83.0	82.0	82.0	82.0	82.0	82.0	82.0	83.0	83.0	83.0	83.0	83.0	84.0	84.0	84.0	84.0	85.0	85.0	85.0	85.0	85.0	86.0	86.0	86.0	87.0	90.0	94.0	99.0	106.0	113.0	119.0	122.0	124.0	123.0	121.0	119.0	116.0	114.0	113.0	111.0	110.0	110.0	109.0	108.0	107.0	106.0	105.0	104.0	104.0	104.0	104.0	104.0	103.0	103.0	102.0	102.0	101.0	100.0	99.0	98.0	97.0	96.0	96.0	95.0	94.0	93.0	93.0	92.0	92.0	92.0	92.0	92.0	91.0	91.0	91.0	91.0	91.0	91.0	91.0	91.0	91.0	90.0	91.0	92.0	94.0	98.0	104.0	110.0	116.0	120.0	122.0	122.0	121.0	119.0	116.0	114.0	112.0	111.0	110.0	108.0	107.0	106.0	105.0	104.0	103.0	103.0	103.0	103.0	103.0	103.0	102.0	102.0	101.0	100.0	99.0	99.0	98.0	97.0	96.0	95.0	94.0	94.0	93.0	93.0	93.0	92.0	92.0	92.0	92.0	92.0	92.0	92.0	92.0	92.0	92.0	91.0	91.0	91.0	91.0	91.0	92.0	93.0	96.0	101.0	106.0	112.0	118.0	122.0	123.0	123.0	121.0	119.0	116.0	113.0	112.0	94.0	94.0	93.0	93.0	93.0	92.0	93.0	93.0	94.0	97.0	100.0	105.0	111.0	115.0	118.0	120.0	120.0	118.0	116.0	103.0	103.0	104.0	105.0	105.0	105.0	105.0	104.0	103.0	102.0	101.0	99.0	98.0	96.0	95.0	94.0	93.0	92.0	91.0	91.0	90.0	90.0	89.0	89.0	88.0	88.0	87.0	87.0	88.0	89.0	93.0	97.0	103.0	108.0	113.0	115.0	116.0	115.0	113.0	111.0	109.0	107.0	105.0	104.0	103.0	102.0	101.0	101.0	100.0	99.0	99.0	99.0	99.0	99.0	99.0	99.0	99.0	99.0	98.0	98.0	97.0	96.0	95.0	94.0	93.0	93.0	92.0	91.0	91.0	90.0	90.0	89.0	89.0	89.0	89.0	89.0	89.0	89.0	89.0	89.0	89.0	89.0	89.0	89.0	89.0	89.0	89.0	91.0	94.0	99.0	106.0	113.0	118.0	122.0	123.0	122.0	120.0	118.0	115.0	113.0	111.0	110.0	109.0	108.0	107.0	106.0	105.0	104.0	103.0	102.0	103.0	103.0	104.0	104.0	104.0	103.0	102.0	101.0	100.0	99.0	99.0	98.0	98.0	97.0	96.0	96.0	95.0	94.0	94.0	93.0	93.0	93.0	93.0	92.0	92.0	94.0	96.0	101.0	106.0	112.0	117.0	119.0	120.0	119.0	118.0	115.0	113.0	111.0	110.0	108.0	106.0	105.0	104.0	103.0	102.0	101.0	101.0	101.0	100.0	100.0	100.0	100.0	100.0	100.0	99.0	98.0	96.0	95.0	94.0	93.0	92.0	92.0	91.0	90.0	89.0	88.0	88.0	88.0	87.0	87.0	87.0	87.0	87.0	87.0	87.0	87.0	87.0	87.0	87.0	87.0	87.0	87.0	87.0	87.0	87.0	87.0	87.0	88.0	90.0	94.0	99.0	106.0	112.0	118.0	122.0	123.0	121.0	119.0	117.0	114.0	112.0	111.0	110.0	109.0	108.0	107.0	106.0	106.0	105.0	105.0	105.0	105.0	105.0	105.0	105.0	105.0	105.0	104.0	102.0	101.0	100.0	99.0	98.0	97.0	96.0	95.0	95.0	94.0	94.0	93.0	93.0	93.0	93.0	92.0	92.0	92.0	92.0	92.0	93.0	94.0	97.0	101.0	106.0	111.0	116.0	119.0	121.0	120.0	119.0	116.0	114.0	111.0	109.0	107.0	105.0	104.0	102.0	101.0	100.0	99.0	99.0	99.0	99.0	100.0	101.0	101.0	101.0	101.0	100.0	99.0	98.0	96.0	95.0	95.0	94.0	93.0	93.0	92.0	91.0	91.0	90.0	90.0	90.0	90.0	90.0	90.0	90.0	91.0	91.0	91.0	91.0	91.0	91.0	91.0	90.0	90.0	90.0	91.0	93.0	96.0	101.0	108.0	114.0	120.0	123.0	125.0	124.0	122.0	120.0	117.0	115.0	113.0	112.0	111.0	110.0	108.0	107.0	106.0	106.0	106.0	106.0	105.0	105.0	104.0	103.0	102.0	101.0	100.0	100.0	99.0	99.0	98.0	97.0	96.0	96.0	95.0	94.0	93.0	92.0	91.0	90.0	90.0	89.0	89.0	89.0	88.0	89.0	90.0	93.0	98.0	104.0	111.0	116.0	119.0	120.0	119.0	117.0	114.0	112.0	110.0	108.0	106.0	105.0	104.0	103.0	101.0	100.0	98.0	98.0	97.0	97.0	97.0	97.0	97.0	97.0	97.0	96.0	96.0	95.0	94.0	93.0	92.0	91.0	90.0	89.0	88.0	87.0	86.0	85.0	84.0	84.0	83.0	83.0	82.0	82.0	82.0	82.0	82.0	82.0	82.0	82.0	82.0	82.0	82.0	82.0	83.0	83.0	84.0	86.0	90.0	95.0	102.0	109.0	114.0	117.0	118.0	117.0	115.0	113.0	110.0	109.0	108.0	108.0	107.0	107.0	107.0	107.0	107.0	107.0	107.0	108.0	109.0	110.0	111.0	111.0	111.0	110.0	108.0	106.0	104.0	102.0	101.0	99.0	99.0	98.0	97.0	97.0	96.0	96.0	95.0	95.0	94.0	94.0	93.0	93.0	93.0	94.0	97.0	102.0	107.0	111.0	115.0	116.0	115.0	113.0	110.0	107.0	105.0	103.0	101.0	100.0	99.0	97.0	96.0	95.0	94.0	94.0	94.0	95.0	95.0	95.0	96.0	96.0	96.0	95.0	95.0	94.0	93.0	92.0	91.0	90.0	90.0	89.0	89.0	88.0	88.0	88.0	88.0	88.0	88.0	88.0	89.0	89.0	89.0	89.0	89.0	90.0	90.0	89.0	89.0	89.0	89.0	91.0	94.0	100.0	106.0	112.0	117.0	120.0	120.0	119.0	116.0	113.0	111.0	108.0	107.0	106.0	105.0	104.0	103.0	101.0	100.0	100.0	99.0	99.0	99.0	99.0	99.0	99.0	99.0	99.0	98.0	97.0	97.0	96.0	95.0	94.0	94.0	93.0	93.0	92.0	92.0	91.0	91.0	90.0	90.0	90.0	90.0	91.0	91.0	93.0	97.0	101.0	107.0	113.0	119.0	122.0	124.0	124.0	123.0	122.0	121.0	119.0	118.0	117.0	116.0	114.0	113.0	111.0	109.0	107.0	107.0	106.0	106.0	106.0	106.0	105.0	104.0	104.0	103.0	102.0	101.0	100.0	99.0	97.0	96.0	95.0	94.0	92.0	91.0	90.0	89.0	88.0	87.0	87.0	87.0	87.0	87.0	87.0	87.0	87.0	87.0	86.0	86.0	86.0	87.0	87.0	89.0	93.0	99.0	106.0	113.0	119.0	124.0	125.0	125.0	123.0	120.0	117.0	115.0	113.0	111.0	110.0	109.0	108.0	108.0	107.0	107.0	106.0	105.0	105.0	104.0	103.0	102.0	100.0	99.0	98.0	96.0	95.0	94.0	93.0	92.0	91.0	91.0	90.0	90.0	90.0	90.0	90.0	90.0	89.0	89.0	89.0	89.0	90.0	92.0	95.0	100.0	106.0	111.0	115.0	118.0	118.0	117.0	115.0	113.0	110.0	108.0	106.0	105.0	103.0	101.0	100.0	99.0	98.0	97.0	97.0	97.0	97.0	97.0	96.0	96.0	95.0	94.0	92.0	91.0	90.0	88.0	87.0	87.0	86.0	85.0	85.0	84.0	84.0	84.0	84.0	84.0	84.0	84.0	84.0	83.0	83.0	83.0	84.0	84.0	85.0	86.0	86.0	87.0	87.0	90.0	93.0	99.0	105.0	111.0	116.0	119.0	119.0	117.0	115.0	112.0	109.0	107.0	106.0	105.0	104.0	103.0	102.0	102.0	101.0	101.0	101.0	101.0	102.0	102.0	103.0	103.0	103.0	102.0	102.0	101.0	100.0	99.0	98.0	97.0	97.0	96.0	96.0	95.0	95.0	95.0	95.0	94.0	94.0	93.0	94.0	95.0	97.0	101.0	106.0	111.0	115.0	118.0	120.0	119.0	117.0	114.0	111.0	108.0	106.0	104.0	103.0	101.0	99.0	98.0	97.0	96.0	97.0	97.0	97.0	98.0	98.0	98.0	97.0	97.0	96.0	95.0	94.0	93.0	93.0	92.0	91.0	90.0	90.0	89.0	89.0	88.0	88.0	88.0	88.0	88.0	88.0	88.0	88.0	89.0	91.0	94.0	99.0	104.0	110.0	115.0	117.0	117.0	116.0	113.0	110.0	107.0	105.0	103.0	102.0	101.0	100.0	98.0	97.0	97.0	96.0	96.0	97.0	97.0	98.0	98.0	98.0	97.0	97.0	96.0	95.0	94.0	93.0	93.0	92.0	91.0	91.0	90.0	90.0	90.0	90.0	90.0	90.0	90.0	90.0	90.0	90.0	91.0	91.0	91.0	91.0	92.0	92.0	92.0	92.0	92.0	93.0	94.0	98.0	103.0	110.0	116.0	121.0	124.0	124.0	123.0	120.0	117.0	114.0	111.0	109.0	107.0	106.0	105.0	104.0	103.0	102.0	101.0	100.0	100.0	100.0	100.0	100.0	100.0	100.0	99.0	99.0	98.0	97.0	96.0	96.0	95.0	94.0	94.0	93.0	93.0	92.0	92.0	92.0	92.0	92.0	92.0	92.0	92.0	92.0	92.0	92.0	93.0	93.0	93.0	92.0	92.0	92.0	94.0	97.0	101.0	107.0	113.0	118.0	121.0	121.0	120.0	117.0	115.0	112.0	109.0	108.0	106.0	105.0	104.0	103.0	102.0	101.0	100.0	100.0	100.0	100.0	100.0	100.0	100.0	100.0	99.0	98.0	98.0	97.0	96.0	95.0	95.0	94.0	94.0	93.0	93.0	92.0	92.0	92.0	92.0	92.0	92.0	92.0	92.0	93.0	93.0	93.0	93.0	93.0	94.0	94.0	94.0	93.0	93.0	93.0	93.0	95.0	98.0	102.0	108.0	114.0	118.0	121.0	121.0	119.0	116.0	113.0	110.0	108.0	105.0	104.0	103.0	102.0	101.0	100.0	100.0	99.0	99.0	100.0	100.0	100.0	101.0	101.0	101.0	101.0	100.0	99.0	99.0	98.0	97.0	96.0	95.0	95.0	95.0	94.0	94.0	94.0	94.0	94.0	94.0	94.0	94.0	95.0	95.0	95.0	95.0	95.0	95.0	96.0	96.0	95.0	95.0	95.0	95.0	96.0	99.0	103.0	109.0	114.0	119.0	123.0	124.0	123.0	121.0	119.0	116.0	113.0	111.0	109.0	107.0	106.0	105.0	104.0	104.0	103.0	103.0	104.0	104.0	104.0	105.0	105.0	105.0	105.0	104.0	103.0	102.0	101.0	100.0	99.0	98.0	96.0	95.0	93.0	91.0	90.0	89.0	89.0	90.0	90.0	90.0	90.0	89.0	89.0	89.0	90.0	93.0	96.0	102.0	107.0	113.0	117.0	119.0	120.0	118.0	116.0	114.0	111.0	109.0	107.0	106.0	104.0	103.0	101.0	100.0	99.0	99.0	99.0	99.0	99.0	99.0	99.0	99.0	98.0	98.0	97.0	96.0	95.0	94.0	93.0	91.0	90.0	90.0	89.0	88.0	88.0	88.0	87.0	87.0	87.0	87.0	87.0	87.0	87.0	88.0	88.0	89.0	89.0	90.0	90.0	91.0	91.0	91.0	92.0	94.0	97.0	102.0	108.0	114.0	118.0	121.0	122.0	121.0	118.0	115.0	112.0	110.0	107.0	106.0	105.0	104.0	103.0	102.0	101.0	101.0	100.0	100.0	100.0	100.0	100.0	100.0	100.0	99.0	99.0	98.0	98.0	97.0	96.0	95.0	94.0	94.0	93.0	92.0	91.0	91.0	90.0	90.0	90.0	89.0	89.0	89.0	89.0	89.0	89.0	90.0	92.0	95.0	100.0	105.0	110.0	114.0	115.0	115.0	114.0	111.0	109.0	106.0	104.0	103.0	102.0	101.0	101.0	100.0	99.0	99.0	98.0	98.0	99.0	99.0	100.0	101.0	101.0	101.0	101.0	101.0	100.0	100.0	99.0	98.0	98.0	97.0	97.0	97.0	96.0	96.0	96.0	96.0	96.0	96.0	96.0	96.0	96.0	96.0	96.0	96.0	96.0	96.0	96.0	96.0	96.0	96.0	96.0	96.0	96.0	96.0	96.0	96.0	98.0	102.0	107.0	114.0	120.0	125.0	127.0	127.0	126.0	123.0	120.0	117.0	115.0	113.0	111.0	110.0	108.0	107.0	105.0	104.0	103.0	103.0	103.0	103.0	103.0	103.0	103.0	102.0	102.0	101.0	100.0	99.0	98.0	97.0	96.0	96.0	95.0	94.0	94.0	93.0	93.0	92.0	93.0	93.0	93.0	94.0	94.0	94.0	96.0	99.0	103.0	108.0	114.0	118.0	121.0	122.0	121.0	120.0	118.0	116.0	114.0	114.0	113.0	113.0	112.0	112.0	111.0	111.0	111.0	111.0	112.0	112.0	112.0	112.0	111.0	110.0	109.0	108.0	107.0	106.0	104.0	103.0	102.0	101.0	100.0	99.0	98.0	97.0	96.0	94.0	93.0	92.0	91.0	91.0	90.0	89.0	88.0	87.0	86.0	85.0	83.0	82.0	82.0	81.0	82.0	83.0	85.0	90.0	96.0	104.0	113.0	120.0	125.0	127.0	127.0	124.0	120.0	116.0	112.0	108.0	105.0	102.0	100.0	99.0	98.0	98.0	99.0	100.0	101.0	103.0	104.0	105.0	106.0	106.0	105.0	104.0	103.0	102.0	101.0	100.0	99.0	97.0	96.0	95.0	94.0	92.0	91.0	90.0	88.0	86.0	85.0	83.0	81.0	78.0	75.0	72.0	69.0	67.0	66.0	67.0	71.0	76.0	83.0	90.0	96.0	101.0	104.0	105.0	105.0	104.0	102.0	101.0	100.0	99.0	98.0	98.0	98.0	99.0	100.0	101.0	102.0	104.0	105.0	106.0	107.0	107.0	107.0	107.0	105.0	104.0	103.0	102.0	101.0	99.0	98.0	96.0	95.0	94.0	95.0	97.0	99.0	101.0	103.0	105.0	106.0	107.0	109.0	113.0	119.0	125.0	130.0	135.0	138.0	141.0	142.0	142.0	143.0	143.0	143.0	142.0	140.0	137.0	133.0	128.0	123.0	118.0	113.0	109.0	106.0	105.0	105.0	104.0	105.0	105.0	105.0	104.0	104.0	102.0	101.0	99.0	96.0	94.0	93.0	91.0	90.0	88.0	86.0	84.0	83.0	83.0	85.0	88.0	92.0	97.0	102.0	106.0	110.0	113.0	113.0	112.0	110.0	107.0	104.0	100.0	97.0	94.0	92.0	89.0	87.0	85.0	84.0	83.0	82.0	81.0	79.0	78.0	76.0	75.0	74.0	73.0	73.0	73.0	72.0	71.0	70.0	68.0	67.0	66.0	65.0	65.0	65.0	64.0	64.0	63.0	63.0	63.0	63.0	64.0	66.0	71.0	77.0	86.0	94.0	102.0	107.0	110.0	110.0	109.0	107.0	105.0	103.0	101.0	100.0	98.0	97.0	96.0	94.0	93.0	92.0	92.0	91.0	91.0	90.0	89.0	88.0	86.0	85.0	83.0	82.0	81.0	80.0	79.0	78.0	78.0	77.0	77.0	77.0	77.0	77.0	78.0	78.0	78.0	80.0	82.0	86.0	91.0	98.0	105.0	111.0	115.0	116.0	116.0	114.0	111.0	108.0	105.0	103.0	101.0	99.0	97.0	96.0	95.0	94.0	95.0	96.0	97.0	100.0	102.0	103.0	104.0	104.0	104.0	103.0	102.0	101.0	100.0	98.0	96.0	95.0	93.0	92.0	92.0	92.0	91.0	91.0	90.0	90.0	92.0	95.0	101.0	108.0	115.0	121.0	125.0	126.0	125.0	124.0	122.0	119.0	117.0	115.0	114.0	112.0	111.0	110.0	109.0	108.0	108.0	107.0	107.0	106.0	106.0	105.0	104.0	102.0	100.0	98.0	96.0	93.0	91.0	89.0	88.0	87.0	86.0	86.0	85.0	85.0	85.0	84.0	84.0	84.0	85.0	86.0	88.0	92.0	97.0	104.0	110.0	116.0	119.0	120.0	119.0	117.0	114.0	111.0	108.0	105.0	103.0	101.0	99.0	98.0	97.0	96.0	95.0	94.0	94.0	94.0	95.0	96.0	96.0	97.0	97.0	97.0	96.0	95.0	94.0	93.0	93.0	92.0	92.0	91.0	91.0	90.0	89.0	89.0	88.0	88.0	89.0	91.0	95.0	100.0	107.0	114.0	120.0	123.0	124.0	123.0	121.0	118.0	115.0	112.0	109.0	106.0	104.0	102.0	100.0	99.0	98.0	98.0	98.0	98.0	99.0	99.0	100.0	101.0	101.0	100.0	100.0	99.0	98.0	97.0	95.0	94.0	93.0	92.0	91.0	90.0	90.0	89.0	89.0	89.0	90.0	94.0	99.0	105.0	112.0	117.0	119.0	120.0	118.0	115.0	112.0	109.0	105.0	103.0	101.0	99.0	97.0	96.0	95.0	94.0	94.0	95.0	96.0	97.0	99.0	100.0	101.0	101.0	101.0	100.0	99.0	98.0	96.0	95.0	94.0	93.0	93.0	92.0	92.0	91.0	91.0	91.0	92.0	94.0	99.0	104.0	111.0	117.0	121.0	124.0	123.0	121.0	118.0	114.0	110.0	107.0	104.0	101.0	99.0	97.0	96.0	95.0	95.0	96.0	97.0	98.0	99.0	100.0	101.0	101.0	101.0	101.0	100.0	99.0	98.0	97.0	96.0	95.0	94.0	92.0	92.0	91.0	90.0	90.0	89.0	89.0	89.0	89.0	89.0	89.0	89.0	89.0	89.0	91.0	94.0	99.0	106.0	113.0	119.0	123.0	125.0	124.0	121.0	118.0	114.0	110.0	106.0	104.0	101.0	99.0	98.0	97.0	96.0	95.0	95.0	96.0	97.0	98.0	99.0	99.0	100.0	99.0	99.0	98.0	97.0	95.0	94.0	93.0	92.0	91.0	91.0	90.0	90.0	90.0	89.0	89.0	89.0	89.0	89.0	90.0	90.0	90.0	90.0	90.0	90.0	90.0	91.0	93.0	96.0	102.0	108.0	115.0	120.0	124.0	125.0	123.0	121.0	117.0	113.0	110.0	107.0	105.0	103.0	101.0	100.0	99.0	98.0	97.0	97.0	98.0	99.0	100.0	101.0	102.0	103.0	103.0	103.0	103.0	102.0	100.0	98.0	96.0	94.0	92.0	91.0	91.0	91.0	92.0	92.0	93.0	93.0	94.0	94.0	95.0	96.0	97.0	98.0	98.0	97.0	96.0	94.0	92.0	91.0	92.0	96.0	101.0	108.0	115.0	121.0	124.0	125.0	124.0	122.0	120.0	117.0	114.0	112.0	109.0	106.0	104.0	102.0	100.0	98.0	97.0	97.0	96.0	97.0	97.0	98.0	98.0	98.0	98.0	98.0	98.0	98.0	98.0	97.0	97.0	96.0	96.0	96.0	96.0	96.0	96.0	96.0	96.0	95.0	95.0	95.0	95.0	95.0	94.0	94.0	94.0	93.0	93.0	92.0	91.0	91.0	91.0	92.0	94.0	99.0	105.0	111.0	116.0	119.0	120.0	119.0	117.0	114.0	110.0	107.0	103.0	99.0	96.0	94.0	92.0	91.0	90.0	90.0	90.0	91.0	93.0	94.0	96.0	97.0	97.0	97.0	97.0	96.0	94.0	93.0	92.0	91.0	91.0	90.0	90.0	90.0	89.0	89.0	89.0	89.0	88.0	88.0	88.0	89.0	89.0	90.0	90.0	91.0	91.0	92.0	92.0	92.0	94.0	96.0	100.0	105.0	110.0	116.0	120.0	123.0	123.0	122.0	119.0	116.0	113.0	109.0	106.0	103.0	101.0	99.0	98.0	97.0	96.0	96.0	97.0	99.0	100.0	102.0	104.0	106.0	107.0	107.0	106.0	105.0	104.0	102.0	101.0	99.0	98.0	96.0	95.0	94.0	94.0	93.0	93.0	92.0	92.0	92.0	91.0	92.0	92.0	93.0	95.0	99.0	104.0	109.0	115.0	119.0	121.0	122.0	121.0	118.0	115.0	112.0	108.0	105.0	103.0	100.0	98.0	97.0	96.0	95.0	96.0	97.0	98.0	100.0	101.0	103.0	104.0	104.0	104.0	103.0	101.0	100.0	99.0	97.0	96.0	95.0	94.0	94.0	93.0	93.0	92.0	92.0	92.0	92.0	93.0	93.0	93.0	93.0	93.0	93.0	93.0	94.0	97.0	101.0	106.0	112.0	118.0	122.0	124.0	123.0	122.0	119.0	115.0	112.0	110.0	108.0	106.0	104.0	103.0	101.0	100.0	100.0	100.0	101.0	102.0	103.0	104.0	105.0	105.0	105.0	105.0	104.0	103.0	102.0	101.0	100.0	99.0	98.0	97.0	97.0	96.0	96.0	96.0	95.0	95.0	94.0	94.0	94.0	94.0	94.0	94.0	94.0	94.0	93.0	93.0	93.0	93.0	93.0	93.0	94.0	96.0	100.0	106.0	113.0	120.0	125.0	128.0	128.0	127.0	125.0	122.0	118.0	115.0	112.0	109.0	107.0	105.0	104.0	104.0	103.0	103.0	104.0	105.0	106.0	107.0	107.0	107.0	107.0	107.0	106.0	105.0	104.0	103.0	101.0	100.0	99.0	98.0	97.0	96.0	95.0	94.0	94.0	93.0	93.0	93.0	93.0	93.0	94.0	94.0	94.0	94.0	94.0	94.0	94.0	94.0	94.0	94.0	95.0	97.0	101.0	106.0	113.0	120.0	126.0	129.0	130.0	130.0	127.0	125.0	122.0	119.0	116.0	114.0	112.0	111.0	110.0	110.0	109.0	109.0	109.0	108.0	109.0	109.0	110.0	110.0	110.0	110.0	109.0	108.0	106.0	105.0	103.0	102.0	101.0	99.0	98.0	98.0	97.0	97.0	97.0	96.0	96.0	96.0	96.0	96.0	96.0	96.0	96.0	95.0	95.0	94.0	92.0	91.0	89.0	88.0	88.0	91.0	95.0	102.0	109.0	116.0	121.0	124.0	125.0	124.0	123.0	121.0	119.0	117.0	115.0	113.0	110.0	109.0	108.0	107.0	107.0	108.0	108.0	108.0	108.0	108.0	108.0	108.0	108.0	107.0	106.0	105.0	103.0	101.0	100.0	98.0	97.0	95.0	94.0	92.0	90.0	88.0	86.0	84.0	84.0	83.0	83.0	83.0	84.0	84.0	84.0	85.0	85.0	86.0	88.0	89.0	91.0	92.0	94.0	97.0	101.0	107.0	112.0	117.0	120.0	122.0	121.0	119.0	116.0	113.0	109.0	106.0	102.0	100.0	97.0	96.0	94.0	93.0	92.0	92.0	93.0	93.0	94.0	94.0	94.0	93.0	93.0	92.0	91.0	91.0	90.0	89.0	88.0	87.0	86.0	85.0	86.0	89.0	93.0	100.0	107.0	113.0	118.0	121.0	121.0	120.0	117.0	114.0	111.0	108.0	106.0	105.0	104.0	105.0	108.0	113.0	120.0	127.0	134.0	140.0	144.0	146.0	145.0	142.0	139.0	135.0	130.0	127.0	123.0	119.0	116.0	112.0	109.0	106.0	103.0	102.0	101.0	100.0	100.0	99.0	99.0	97.0	96.0	94.0	92.0	90.0	88.0	87.0	85.0	84.0	84.0	83.0	83.0	82.0	82.0	81.0	80.0	80.0	79.0	79.0	78.0	78.0	77.0	76.0	74.0	73.0	71.0	70.0	69.0	69.0	71.0	74.0	79.0	86.0	93.0	99.0	103.0	104.0	104.0	102.0	99.0	96.0	93.0	91.0	90.0	89.0	89.0	89.0	89.0	90.0	91.0	93.0	94.0	96.0	97.0	97.0	97.0	97.0	95.0	94.0	93.0	92.0	91.0	89.0	88.0	87.0	86.0	85.0	85.0	84.0	83.0	83.0	82.0	81.0	80.0	79.0	78.0	77.0	77.0	76.0	75.0	75.0	75.0	75.0	75.0	74.0	74.0	74.0	74.0	75.0	77.0	81.0	87.0	95.0	102.0	108.0	113.0	115.0	116.0	114.0	112.0	110.0	107.0	104.0	102.0	101.0	100.0	99.0	98.0	98.0	98.0	98.0	99.0	100.0	101.0	101.0	101.0	101.0	101.0	100.0	99.0	97.0	96.0	94.0	93.0	92.0	91.0	90.0	89.0	89.0	88.0	88.0	88.0	87.0	87.0	87.0	87.0	87.0	88.0	91.0	95.0	101.0	107.0	112.0	116.0	118.0	118.0	117.0	115.0	113.0	111.0	109.0	107.0	106.0	105.0	104.0	103.0	102.0	101.0	101.0	102.0	103.0	103.0	104.0	105.0	105.0	105.0	105.0	104.0	103.0	101.0	100.0	98.0	96.0	95.0	94.0	93.0	92.0	91.0	90.0	90.0	90.0	90.0	89.0	89.0	89.0	88.0	88.0	88.0	89.0	92.0	96.0	102.0	108.0	114.0	118.0	120.0	121.0	120.0	118.0	115.0	112.0	110.0	108.0	106.0	105.0	103.0	102.0	101.0	99.0	99.0	98.0	98.0	98.0	98.0	98.0	98.0	97.0	97.0	96.0	95.0	94.0	92.0	91.0	90.0	89.0	88.0	87.0	87.0	86.0	86.0	85.0	86.0	86.0	87.0	87.0	88.0	88.0	88.0	87.0	87.0	87.0	87.0	87.0	88.0	88.0	88.0	88.0	88.0	88.0	88.0	87.0	88.0	90.0	93.0	99.0	106.0	113.0	119.0	123.0	125.0	125.0	123.0	121.0	118.0	115.0	113.0	111.0	110.0	108.0	107.0	106.0	105.0	104.0	103.0	103.0	102.0	102.0	102.0	102.0	101.0	101.0	100.0	99.0	98.0	96.0	95.0	94.0	92.0	91.0	90.0	89.0	88.0	88.0	87.0	87.0	87.0	86.0	86.0	86.0	86.0	86.0	86.0	85.0	85.0	85.0	86.0	86.0	87.0	87.0	87.0	87.0	87.0	86.0	86.0	86.0	86.0	85.0	86.0	88.0	92.0	98.0	104.0	111.0	117.0	121.0	122.0	122.0	120.0	117.0	115.0	112.0	110.0	108.0	107.0	106.0	105.0	104.0	103.0	103.0	102.0	102.0	103.0	103.0	103.0	103.0	102.0	102.0	101.0	100.0	99.0	97.0	96.0	95.0	94.0	93.0	92.0	92.0	91.0	91.0	91.0	91.0	92.0	93.0	94.0	94.0	94.0	94.0	94.0	94.0	93.0	93.0	93.0	93.0	93.0	93.0	93.0	92.0	92.0	92.0	91.0	91.0	90.0	89.0	89.0	90.0	92.0	96.0	101.0	107.0	114.0	119.0	122.0	123.0	122.0	120.0	118.0	115.0	112.0	110.0	108.0	106.0	105.0	103.0	103.0	102.0	102.0	103.0	103.0	104.0	105.0	105.0	105.0	104.0	104.0	102.0	101.0	100.0	98.0	97.0	96.0	94.0	93.0	93.0	92.0	91.0	91.0	91.0	91.0	91.0	91.0	91.0	91.0	91.0	91.0	90.0	90.0	90.0	90.0	90.0	90.0	90.0	90.0	90.0	89.0	89.0	89.0	89.0	90.0	92.0	95.0	100.0	107.0	113.0	119.0	124.0	126.0	126.0	125.0	123.0	120.0	117.0	114.0	111.0	110.0	108.0	107.0	106.0	104.0	103.0	102.0	102.0	102.0	103.0	104.0	107.0	110.0	114.0	118.0	123.0	127.0	132.0	136.0	140.0	144.0	147.0	149.0	150.0	151.0	151.0	151.0	150.0	148.0	147.0	144.0	142.0	139.0	136.0	133.0	130.0	127.0	124.0	121.0	118.0	114.0	111.0	108.0	105.0	102.0	99.0	96.0	93.0	89.0	86.0	83.0	81.0	79.0	79.0	82.0	86.0	92.0	98.0	103.0	105.0	106.0	103.0	100.0	95.0	91.0	87.0	83.0	80.0	77.0	75.0	73.0	71.0	70.0	69.0	69.0	70.0	71.0	72.0	73.0	74.0	74.0	74.0	74.0	74.0	73.0	72.0	72.0	71.0	70.0	69.0	69.0	69.0	68.0	68.0	68.0	68.0	69.0	70.0	70.0	71.0	72.0	73.0	74.0	75.0	77.0	78.0	79.0	80.0	81.0	82.0	83.0	83.0	84.0	84.0	85.0	86.0	86.0	86.0	86.0	86.0	87.0	88.0	90.0	95.0	101.0	109.0	116.0	123.0	127.0	128.0	128.0	127.0	126.0	123.0	120.0	118.0	116.0	114.0	112.0	111.0	110.0	109.0	109.0	109.0	109.0	109.0	109.0	110.0	110.0	109.0	109.0	108.0	107.0	105.0	104.0	102.0	101.0	99.0	98.0	97.0	96.0	95.0	94.0	94.0	94.0	93.0	93.0	93.0	93.0	92.0	92.0	93.0	93.0	93.0	93.0	93.0	92.0	92.0	92.0	92.0	92.0	92.0	91.0	91.0	91.0	91.0	91.0	91.0	90.0	90.0	90.0	91.0	94.0	98.0	105.0	112.0	118.0	123.0	126.0	127.0	126.0	124.0	121.0	118.0	115.0	112.0	110.0	108.0	106.0	104.0	103.0	103.0	103.0	103.0	104.0	105.0	105.0	106.0	106.0	105.0	105.0	104.0	102.0	101.0	100.0	99.0	97.0	96.0	95.0	94.0	93.0	92.0	92.0	91.0	91.0	91.0	91.0	91.0	91.0	91.0	91.0	91.0	91.0	91.0	91.0	90.0	90.0	90.0	90.0	90.0	89.0	89.0	89.0	88.0	88.0	87.0	87.0	87.0	89.0	91.0	96.0	103.0	110.0	118.0	123.0	127.0	127.0	127.0	125.0	122.0	119.0	116.0	113.0	111.0	109.0	107.0	106.0	91.0	91.0	91.0	91.0	91.0	91.0	90.0	90.0	90.0	89.0	89.0	88.0	88.0	88.0	89.0	92.0	97.0	104.0	111.0	118.0	123.0	126.0	127.0	126.0	124.0	122.0	119.0	116.0	113.0	111.0	109.0	108.0	107.0	106.0	106.0	105.0	106.0	106.0	106.0	107.0	107.0	107.0	107.0	106.0	105.0	104.0	103.0	101.0	100.0	98.0	97.0	96.0	95.0	94.0	93.0	92.0	92.0	91.0	91.0	91.0	91.0	91.0	91.0	91.0	91.0	91.0	91.0	91.0	91.0	91.0	91.0	91.0	91.0	91.0	91.0	91.0	90.0	90.0	90.0	90.0	90.0	91.0	94.0	100.0	106.0	114.0	121.0	126.0	128.0	128.0	127.0	126.0	123.0	120.0	118.0	115.0	114.0	112.0	111.0	110.0	109.0	109.0	108.0	108.0	108.0	108.0	108.0	108.0	108.0	107.0	106.0	105.0	104.0	102.0	101.0	99.0	98.0	97.0	95.0	94.0	93.0	92.0	92.0	91.0	91.0	91.0	91.0	91.0	91.0	91.0	91.0	91.0	91.0	91.0	91.0	91.0	91.0	91.0	90.0	90.0	90.0	90.0	90.0	90.0	89.0	89.0	89.0	89.0	91.0	95.0	101.0	108.0	115.0	122.0	127.0	128.0	129.0	128.0	127.0	125.0	123.0	120.0	118.0	116.0	115.0	113.0	112.0	111.0	110.0	110.0	110.0	110.0	110.0	110.0	109.0	109.0	108.0	107.0	106.0	105.0	103.0	101.0	99.0	98.0	96.0	95.0	94.0	93.0	92.0	92.0	91.0	90.0	90.0	89.0	89.0	88.0	88.0	88.0	88.0	87.0	87.0	87.0	87.0	87.0	87.0	87.0	87.0	87.0	87.0	87.0	86.0	86.0	86.0	86.0	88.0	91.0	97.0	103.0	110.0	116.0	121.0	124.0	125.0	124.0	122.0	120.0	117.0	114.0	112.0	109.0	108.0	106.0	105.0	105.0	105.0	105.0	105.0	106.0	107.0	108.0	108.0	108.0	108.0	107.0	106.0	104.0	102.0	100.0	99.0	97.0	96.0	94.0	93.0	92.0	92.0	91.0	91.0	91.0	91.0	91.0	91.0	90.0	90.0	90.0	90.0	90.0	90.0	90.0	89.0	89.0	88.0	88.0	87.0	86.0	86.0	85.0	85.0	87.0	90.0	95.0	101.0	107.0	113.0	118.0	120.0	121.0	120.0	118.0	116.0	113.0	111.0	109.0	107.0	106.0	105.0	104.0	104.0	103.0	104.0	105.0	106.0	107.0	107.0	108.0	107.0	106.0	105.0	103.0	102.0	100.0	98.0	97.0	95.0	94.0	93.0	92.0	92.0	92.0	92.0	92.0	92.0	92.0	92.0	91.0	91.0	91.0	91.0	91.0	91.0	90.0	90.0	90.0	89.0	89.0	89.0	88.0	88.0	87.0	86.0	86.0	86.0	87.0	91.0	96.0	103.0	110.0	117.0	122.0	125.0	126.0	126.0	124.0	122.0	120.0	117.0	116.0	114.0	113.0	112.0	111.0	110.0	109.0	109.0	109.0	109.0	109.0	109.0	108.0	108.0	107.0	106.0	105.0	103.0	102.0	100.0	99.0	97.0	96.0	94.0	93.0	92.0	91.0	91.0	90.0	90.0	90.0	90.0	90.0	89.0	89.0	89.0	88.0	88.0	87.0	87.0	86.0	86.0	85.0	85.0	84.0	84.0	83.0	83.0	83.0	82.0	82.0	81.0	81.0	82.0	84.0	88.0	94.0	101.0	109.0	115.0	120.0	123.0	124.0	124.0	122.0	119.0	117.0	115.0	113.0	112.0	111.0	110.0	110.0	109.0	108.0	107.0	107.0	106.0	106.0	106.0	106.0	105.0	105.0	103.0	102.0	101.0	99.0	98.0	96.0	95.0	93.0	92.0	91.0	90.0	89.0	88.0	88.0	88.0	87.0	87.0	87.0	87.0	86.0	86.0	86.0	86.0	86.0	85.0	84.0	84.0	83.0	83.0	82.0	82.0	81.0	81.0	80.0	80.0	80.0	80.0	80.0	79.0	79.0	79.0	80.0	83.0	88.0	94.0	102.0	109.0	115.0	119.0	121.0	121.0	120.0	118.0	116.0	114.0	112.0	110.0	109.0	108.0	107.0	106.0	106.0	105.0	105.0	106.0	107.0	108.0	108.0	109.0	109.0	109.0	108.0	107.0	106.0	104.0	102.0	101.0	99.0	98.0	96.0	95.0	94.0	93.0	93.0	92.0	92.0	91.0	91.0	91.0	91.0	90.0	90.0	90.0	89.0	89.0	88.0	88.0	87.0	87.0	86.0	86.0	85.0	85.0	85.0	84.0	84.0	84.0	84.0	85.0	87.0	91.0	95.0	101.0	108.0	115.0	120.0	123.0	124.0	124.0	122.0	119.0	117.0	114.0	112.0	109.0	107.0	106.0	104.0	103.0	103.0	103.0	103.0	104.0	104.0	105.0	105.0	104.0	104.0	103.0	102.0	100.0	98.0	97.0	95.0	94.0	93.0	92.0	92.0	92.0	91.0	91.0	91.0	91.0	91.0	92.0	92.0	92.0	92.0	92.0	92.0	91.0	90.0	90.0	90.0	89.0	89.0	89.0	88.0	88.0	87.0	86.0	85.0	85.0	85.0	86.0	88.0	92.0	98.0	105.0	112.0	118.0	122.0	124.0	124.0	122.0	120.0	117.0	114.0	112.0	110.0	108.0	107.0	106.0	105.0	105.0	104.0	105.0	105.0	106.0	106.0	106.0	106.0	106.0	105.0	105.0	104.0	102.0	101.0	99.0	98.0	96.0	95.0	94.0	94.0	93.0	92.0	91.0	90.0	90.0	89.0	89.0	89.0	88.0	88.0	87.0	87.0	87.0	86.0	86.0	85.0	85.0	85.0	84.0	84.0	84.0	84.0	84.0	84.0	84.0	85.0	86.0	89.0	95.0	102.0	110.0	118.0	124.0	127.0	129.0	129.0	128.0	127.0	125.0	123.0	122.0	121.0	120.0	119.0	119.0	118.0	116.0	115.0	114.0	113.0	112.0	111.0	111.0	110.0	110.0	110.0	110.0	109.0	107.0	105.0	103.0	101.0	98.0	96.0	94.0	93.0	91.0	90.0	89.0	88.0	87.0	87.0	87.0	87.0	87.0	87.0	87.0	87.0	86.0	86.0	86.0	85.0	85.0	84.0	83.0	82.0	81.0	81.0	80.0	80.0	80.0	79.0	79.0	78.0	77.0	76.0	76.0	78.0	81.0	87.0	94.0	102.0	110.0	116.0	120.0	122.0	123.0	122.0	121.0	119.0	117.0	116.0	115.0	114.0	114.0	114.0	114.0	114.0	114.0	114.0	114.0	114.0	114.0	114.0	114.0	114.0	113.0	112.0	110.0	108.0	107.0	105.0	103.0	101.0	100.0	99.0	97.0	96.0	95.0	94.0	94.0	93.0	93.0	92.0	91.0	91.0	90.0	89.0	89.0	88.0	87.0	87.0	86.0	85.0	85.0	85.0	84.0	84.0	83.0	83.0	82.0	82.0	81.0	81.0	80.0	80.0	81.0	82.0	85.0	90.0	97.0	104.0	111.0	117.0	120.0	122.0	122.0	120.0	118.0	115.0	113.0	111.0	110.0	109.0	108.0	108.0	107.0	107.0	107.0	107.0	107.0	108.0	109.0	109.0	109.0	109.0	108.0	106.0	105.0	103.0	102.0	100.0	99.0	98.0	97.0	97.0	96.0	96.0	96.0	95.0	95.0	94.0	94.0	93.0	92.0	92.0	91.0	91.0	90.0	89.0	88.0	86.0	85.0	84.0	83.0	82.0	81.0	79.0	78.0	76.0	74.0	73.0	74.0	76.0	80.0	86.0	94.0	102.0	109.0	114.0	116.0	115.0	113.0	110.0	106.0	104.0	102.0	102.0	102.0	103.0	103.0	104.0	104.0	104.0	105.0	106.0	107.0	108.0	109.0	110.0	110.0	109.0	108.0	106.0	104.0	101.0	98.0	96.0	93.0	90.0	88.0	86.0	84.0	82.0	81.0	81.0	81.0	81.0	82.0	83.0	85.0	86.0	88.0	89.0	90.0	91.0	91.0	92.0	92.0	92.0	93.0	96.0	100.0	105.0	111.0	116.0	121.0	124.0	126.0	125.0	124.0	122.0	119.0	117.0	114.0	112.0	110.0	108.0	107.0	105.0	104.0	104.0	104.0	104.0	105.0	106.0	107.0	108.0	108.0	107.0	107.0	106.0	104.0	103.0	102.0	100.0	99.0	97.0	96.0	94.0	92.0	91.0	89.0	88.0	86.0	86.0	85.0	85.0	85.0	85.0	85.0	86.0	89.0	92.0	97.0	103.0	108.0	113.0	116.0	117.0	117.0	116.0	114.0	112.0	110.0	109.0	108.0	106.0	105.0	104.0	103.0	101.0	100.0	100.0	100.0	100.0	100.0	100.0	100.0	99.0	98.0	96.0	93.0	91.0	89.0	86.0	84.0	82.0	80.0	79.0	78.0	78.0	78.0	78.0	78.0	79.0	79.0	81.0	85.0	90.0	96.0	103.0	109.0	113.0	116.0	116.0	114.0	112.0	109.0	106.0	103.0	101.0	98.0	96.0	95.0	93.0	92.0	91.0	91.0	92.0	92.0	93.0	94.0	94.0	94.0	94.0	94.0	93.0	92.0	91.0	90.0	89.0	88.0	88.0	87.0	87.0	86.0	86.0	86.0	86.0	86.0	87.0	88.0	90.0	94.0	100.0	107.0	113.0	118.0	122.0	123.0	122.0	121.0	118.0	116.0	114.0	112.0	110.0	109.0	108.0	107.0	107.0	106.0	106.0	106.0	106.0	107.0	108.0	109.0	110.0	110.0	109.0	109.0	107.0	106.0	104.0	103.0	101.0	100.0	98.0	97.0	96.0	96.0	95.0	95.0	95.0	95.0	95.0	94.0	94.0	93.0	94.0	96.0	100.0	106.0	113.0	120.0	126.0	129.0	131.0	131.0	129.0	127.0	126.0	124.0	122.0	121.0	119.0	118.0	117.0	116.0	114.0	112.0	110.0	107.0	105.0	103.0	101.0	99.0	98.0	96.0	94.0	92.0	90.0	89.0	88.0	88.0	87.0	86.0	86.0	85.0	85.0	84.0	84.0	85.0	85.0	86.0	87.0	88.0	89.0	90.0	90.0	90.0	89.0	88.0	87.0	85.0	84.0	83.0	82.0	81.0	80.0	80.0	81.0	82.0	86.0	92.0	100.0	109.0	118.0	125.0	128.0	130.0	129.0	127.0	124.0	121.0	118.0	116.0	114.0	113.0	112.0	111.0	109.0	107.0	106.0	104.0	102.0	101.0	100.0	99.0	98.0	97.0	96.0	95.0	93.0	91.0	90.0	88.0	87.0	86.0	85.0	84.0	84.0	83.0	82.0	82.0	81.0	81.0	81.0	81.0	80.0	80.0	80.0	80.0	80.0	80.0	80.0	80.0	80.0	80.0	80.0	80.0	79.0	79.0	79.0	81.0	83.0	88.0	94.0	101.0	108.0	114.0	118.0	120.0	119.0	117.0	114.0	111.0	109.0	107.0	105.0	104.0	104.0	103.0	102.0	102.0	101.0	100.0	100.0	100.0	101.0	101.0	101.0	101.0	101.0	100.0	99.0	98.0	97.0	96.0	95.0	94.0	94.0	93.0	92.0	92.0	91.0	91.0	91.0	91.0	90.0	90.0	90.0	90.0	90.0	90.0	90.0	90.0	89.0	89.0	89.0	89.0	89.0	89.0	89.0	89.0	89.0	90.0	90.0	90.0	91.0	91.0	93.0	96.0	101.0	108.0	115.0	121.0	124.0	126.0	125.0	122.0	119.0	115.0	112.0	110.0	108.0	106.0	104.0	103.0	102.0	101.0	100.0	100.0	100.0	100.0	100.0	100.0	100.0	100.0	100.0	99.0	99.0	98.0	97.0	96.0	96.0	95.0	94.0	93.0	93.0	92.0	92.0	91.0	91.0	91.0	91.0	91.0	91.0	91.0	91.0	91.0	91.0	91.0	91.0	90.0	90.0	90.0	90.0	90.0	90.0	90.0	89.0	89.0	89.0	89.0	88.0	88.0	88.0	88.0	90.0	93.0	98.0	105.0	112.0	118.0	122.0	124.0	124.0	122.0	119.0	116.0	112.0	109.0	107.0	105.0	104.0	103.0	103.0	102.0	102.0	102.0	102.0	102.0	103.0	103.0	103.0	103.0	103.0	102.0	101.0	99.0	98.0	97.0	95.0	94.0	93.0	92.0	92.0	92.0	93.0	93.0	94.0	94.0	95.0	95.0	95.0	96.0	96.0	95.0	95.0	95.0	94.0	94.0	94.0	94.0	94.0	93.0	93.0	93.0	93.0	93.0	93.0	93.0	94.0	95.0	97.0	100.0	105.0	111.0	117.0	122.0	125.0	126.0	125.0	123.0	120.0	116.0	112.0	109.0	106.0	104.0	103.0	101.0	100.0	100.0	100.0	100.0	101.0	102.0	103.0	103.0	103.0	103.0	102.0	101.0	100.0	99.0	98.0	97.0	95.0	94.0	93.0	93.0	92.0	91.0	91.0	92.0	92.0	93.0	93.0	94.0	94.0	95.0	95.0	95.0	95.0	95.0	95.0	95.0	95.0	95.0	95.0	95.0	95.0	94.0	94.0	93.0	93.0	95.0	98.0	102.0	108.0	114.0	119.0	122.0	123.0	123.0	120.0	117.0	114.0	111.0	108.0	105.0	104.0	102.0	102.0	101.0	100.0	100.0	101.0	101.0	102.0	103.0	104.0	105.0	105.0	105.0	104.0	103.0	101.0	100.0	99.0	98.0	97.0	96.0	95.0	94.0	93.0	93.0	93.0	93.0	93.0	93.0	93.0	93.0	94.0	94.0	94.0	94.0	94.0	95.0	95.0	94.0	94.0	94.0	94.0	94.0	94.0	94.0	93.0	93.0	93.0	93.0	96.0	100.0	105.0	111.0	117.0	122.0	124.0	124.0	122.0	119.0	116.0	113.0	109.0	106.0	104.0	101.0	100.0	98.0	97.0	97.0	97.0	98.0	99.0	100.0	102.0	102.0	103.0	103.0	102.0	102.0	100.0	99.0	98.0	97.0	96.0	95.0	94.0	93.0	93.0	92.0	92.0	92.0	92.0	92.0	93.0	93.0	93.0	94.0	94.0	94.0	94.0	95.0	95.0	95.0	95.0	95.0	95.0	95.0	94.0	94.0	94.0	93.0	93.0	93.0	95.0	99.0	104.0	110.0	116.0	121.0	123.0	124.0	123.0	120.0	117.0	114.0	110.0	107.0	104.0	102.0	100.0	99.0	98.0	97.0	98.0	98.0	99.0	100.0	102.0	103.0	104.0	105.0	105.0	105.0	104.0	103.0	102.0	101.0	99.0	98.0	97.0	96.0	96.0	95.0	95.0	94.0	94.0	94.0	94.0	94.0	95.0	95.0	95.0	95.0	95.0	95.0	95.0	95.0	95.0	95.0	95.0	95.0	94.0	94.0	93.0	93.0	92.0	93.0	95.0	99.0	105.0	111.0	117.0	123.0	126.0	127.0	126.0	124.0	122.0	119.0	116.0	113.0	110.0	108.0	107.0	105.0	104.0	104.0	104.0	105.0	106.0	107.0	108.0	109.0	109.0	109.0	108.0	106.0	105.0	103.0	102.0	100.0	99.0	98.0	97.0	96.0	95.0	94.0	94.0	94.0	93.0	93.0	93.0	94.0	94.0	94.0	94.0	94.0	94.0	94.0	94.0	94.0	94.0	94.0	93.0	93.0	92.0	92.0	91.0	92.0	94.0	97.0	101.0	107.0	112.0	116.0	118.0	118.0	117.0	114.0	111.0	108.0	105.0	102.0	100.0	97.0	96.0	95.0	95.0	95.0	96.0	97.0	99.0	100.0	102.0	103.0	103.0	103.0	102.0	101.0	100.0	99.0	97.0	96.0	94.0	93.0	92.0	92.0	91.0	91.0	91.0	91.0	91.0	91.0	91.0	92.0	92.0	93.0	93.0	93.0	93.0	93.0	93.0	93.0	93.0	93.0	92.0	93.0	94.0	96.0	100.0	105.0	111.0	116.0	119.0	121.0	121.0	119.0	116.0	113.0	110.0	108.0	106.0	104.0	103.0	103.0	102.0	102.0	102.0	103.0	104.0	105.0	106.0	107.0	108.0	108.0	108.0	107.0	106.0	104.0	103.0	101.0	99.0	98.0	97.0	96.0	95.0	94.0	94.0	93.0	93.0	93.0	94.0	94.0	95.0	95.0	95.0	96.0	96.0	96.0	96.0	96.0	95.0	95.0	95.0	96.0	98.0	102.0	107.0	113.0	118.0	122.0	124.0	124.0	122.0	120.0	117.0	114.0	111.0	108.0	107.0	105.0	105.0	104.0	104.0	104.0	105.0	105.0	106.0	107.0	108.0	108.0	108.0	108.0	107.0	106.0	105.0	104.0	102.0	101.0	99.0	98.0	98.0	97.0	96.0	96.0	96.0	96.0	96.0	96.0	96.0	96.0	97.0	97.0	97.0	97.0	97.0	97.0	97.0	97.0	97.0	97.0	96.0	96.0	96.0	95.0	95.0	94.0	95.0	96.0	100.0	105.0	112.0	118.0	124.0	127.0	128.0	128.0	127.0	124.0	121.0	118.0	116.0	113.0	112.0	110.0	109.0	108.0	107.0	106.0	106.0	106.0	106.0	106.0	106.0	106.0	106.0	105.0	105.0	104.0	102.0	101.0	100.0	98.0	97.0	96.0	95.0	94.0	93.0	92.0	92.0	91.0	91.0	91.0	91.0	91.0	91.0	90.0	90.0	90.0	90.0	90.0	90.0	90.0	89.0	89.0	89.0	88.0	88.0	88.0	87.0	87.0	86.0	87.0	88.0	92.0	97.0	104.0	111.0	117.0	121.0	123.0	123.0	122.0	119.0	117.0	114.0	112.0	110.0	108.0	107.0	105.0	104.0	104.0	103.0	103.0	103.0	103.0	104.0	104.0	104.0	104.0	103.0	103.0	102.0	101.0	99.0	98.0	97.0	95.0	94.0	93.0	92.0	92.0	91.0	90.0	90.0	90.0	90.0	90.0	90.0	90.0	90.0	89.0	89.0	89.0	89.0	89.0	89.0	88.0	88.0	88.0	87.0	87.0	87.0	86.0	86.0	86.0	85.0	85.0	87.0	90.0	95.0	102.0	109.0	115.0	120.0	122.0	123.0	122.0	120.0	118.0	115.0	112.0	110.0	108.0	107.0	105.0	105.0	104.0	104.0	104.0	104.0	105.0	106.0	106.0	107.0	107.0	106.0	105.0	104.0	103.0	102.0	100.0	99.0	97.0	96.0	94.0	93.0	92.0	91.0	91.0	90.0	90.0	90.0	90.0	89.0	89.0	89.0	89.0	89.0	89.0	89.0	89.0	88.0	88.0	88.0	88.0	87.0	87.0	86.0	86.0	85.0	85.0	85.0	85.0	88.0	92.0	98.0	104.0	111.0	117.0	120.0	122.0	121.0	120.0	118.0	115.0	112.0	110.0	107.0	105.0	104.0	102.0	101.0	101.0	101.0	101.0	102.0	102.0	103.0	103.0	104.0	103.0	103.0	101.0	100.0	99.0	97.0	96.0	94.0	93.0	92.0	91.0	90.0	89.0	89.0	89.0	88.0	88.0	88.0	88.0	88.0	88.0	88.0	88.0	88.0	88.0	88.0	87.0	87.0	87.0	86.0	86.0	85.0	85.0	86.0	87.0	90.0	95.0	101.0	108.0	114.0	118.0	120.0	120.0	119.0	117.0	115.0	112.0	109.0	106.0	104.0	102.0	100.0	99.0	98.0	98.0	99.0	100.0	101.0	101.0	102.0	103.0	103.0	102.0	101.0	100.0	99.0	97.0	96.0	94.0	93.0	92.0	91.0	90.0	89.0	89.0	88.0	88.0	88.0	88.0	88.0	88.0	88.0	88.0	88.0	88.0	88.0	88.0	88.0	88.0	88.0	87.0	87.0	86.0	86.0	85.0	86.0	87.0	89.0	94.0	100.0	108.0	115.0	122.0	126.0	127.0	127.0	126.0	124.0	121.0	118.0	115.0	113.0	110.0	109.0	107.0	106.0	105.0	105.0	106.0	107.0	108.0	108.0	108.0	108.0	108.0	107.0	105.0	104.0	102.0	101.0	99.0	97.0	96.0	94.0	93.0	93.0	92.0	91.0	91.0	91.0	90.0	90.0	90.0	90.0	90.0	90.0	90.0	90.0	90.0	89.0	89.0	89.0	88.0	88.0	87.0	86.0	86.0	87.0	89.0	93.0	98.0	104.0	110.0	116.0	119.0	121.0	121.0	120.0	117.0	115.0	112.0	109.0	107.0	105.0	103.0	102.0	101.0	100.0	100.0	101.0	101.0	102.0	103.0	104.0	104.0	104.0	104.0	103.0	101.0	100.0	98.0	97.0	96.0	95.0	94.0	93.0	92.0	92.0	92.0	91.0	91.0	91.0	91.0	91.0	91.0	91.0	91.0	91.0	91.0	91.0	90.0	90.0	90.0	89.0	89.0	88.0	87.0	87.0	88.0	91.0	95.0	101.0	108.0	114.0	119.0	122.0	123.0	122.0	120.0	118.0	115.0	112.0	110.0	108.0	106.0	104.0	103.0	102.0	102.0	102.0	103.0	104.0	105.0	106.0	106.0	106.0	106.0	105.0	103.0	102.0	101.0	99.0	98.0	96.0	95.0	94.0	93.0	92.0	92.0	91.0	91.0	91.0	91.0	91.0	91.0	92.0	92.0	92.0	92.0	92.0	91.0	91.0	91.0	90.0	90.0	89.0	89.0	89.0	91.0	94.0	99.0	105.0	111.0	117.0	120.0	122.0	122.0	121.0	119.0	116.0	113.0	111.0	109.0	107.0	106.0	106.0	106.0	107.0	108.0	109.0	110.0	111.0	112.0	112.0	112.0	112.0	111.0	110.0	108.0	107.0	105.0	103.0	101.0	100.0	99.0	98.0	97.0	96.0	95.0	95.0	94.0	94.0	94.0	94.0	94.0	94.0	93.0	93.0	93.0	92.0	92.0	91.0	91.0	90.0	89.0	88.0	87.0	87.0	88.0	91.0	96.0	101.0	107.0	113.0	117.0	120.0	121.0	120.0	118.0	116.0	113.0	110.0	107.0	105.0	103.0	102.0	101.0	100.0	100.0	100.0	101.0	103.0	104.0	104.0	105.0	104.0	103.0	103.0	101.0	101.0	100.0	99.0	98.0	97.0	96.0	95.0	95.0	94.0	93.0	93.0	93.0	93.0	93.0	94.0	94.0	94.0	94.0	93.0	92.0	91.0	91.0	91.0	92.0	95.0	100.0	105.0	111.0	117.0	121.0	124.0	125.0	125.0	123.0	121.0	118.0	116.0	113.0	111.0	109.0	108.0	106.0	105.0	104.0	104.0	105.0	105.0	106.0	106.0	106.0	106.0	105.0	103.0	102.0	100.0	99.0	97.0	95.0	94.0	93.0	92.0	91.0	90.0	89.0	88.0	88.0	88.0	87.0	87.0	87.0	87.0	87.0	87.0	87.0	87.0	86.0	86.0	86.0	85.0	85.0	85.0	85.0	85.0	84.0	84.0	83.0	83.0	84.0	87.0	92.0	99.0	107.0	114.0	120.0	124.0	125.0	125.0	124.0	122.0	119.0	117.0	115.0	113.0	112.0	111.0	110.0	110.0	109.0	108.0	108.0	107.0	107.0	107.0	107.0	106.0	106.0	104.0	103.0	102.0	100.0	99.0	97.0	96.0	95.0	94.0	93.0	93.0	92.0	92.0	92.0	92.0	92.0	92.0	92.0	92.0	91.0	91.0	91.0	90.0	90.0	89.0	89.0	88.0	87.0	86.0	85.0	84.0	84.0	83.0	83.0	83.0	86.0	90.0	97.0	104.0	111.0	117.0	121.0	123.0	124.0	123.0	121.0	119.0	117.0	115.0	113.0	112.0	110.0	109.0	108.0	107.0	106.0	106.0	105.0	105.0	105.0	105.0	104.0	104.0	103.0	102.0	101.0	99.0	97.0	96.0	94.0	93.0	91.0	90.0	89.0	88.0	87.0	86.0	85.0	85.0	84.0	84.0	84.0	84.0	83.0	83.0	83.0	82.0	82.0	82.0	82.0	82.0	82.0	82.0	81.0	81.0	81.0	80.0	80.0	80.0	80.0	83.0	87.0	94.0	101.0	109.0	115.0	119.0	122.0	122.0	122.0	120.0	118.0	116.0	113.0	111.0	110.0	108.0	107.0	106.0	106.0	105.0	106.0	106.0	107.0	107.0	107.0	107.0	106.0	105.0	104.0	103.0	101.0	99.0	98.0	96.0	94.0	93.0	92.0	91.0	90.0	89.0	89.0	88.0	88.0	87.0	87.0	87.0	87.0	87.0	86.0	86.0	86.0	85.0	85.0	85.0	85.0	85.0	84.0	84.0	83.0	82.0	82.0	83.0	85.0	89.0	94.0	101.0	108.0	114.0	118.0	121.0	122.0	121.0	119.0	116.0	114.0	111.0	108.0	106.0	105.0	103.0	102.0	102.0	102.0	102.0	103.0	104.0	105.0	106.0	106.0	106.0	105.0	104.0	102.0	101.0	99.0	97.0	95.0	93.0	92.0	91.0	90.0	89.0	89.0	88.0	88.0	88.0	88.0	88.0	88.0	88.0	88.0	88.0	88.0	88.0	87.0	87.0	86.0	86.0	85.0	84.0	83.0	83.0	85.0	89.0	94.0	101.0	108.0	114.0	118.0	121.0	122.0	121.0	120.0	117.0	115.0	112.0	110.0	108.0	106.0	104.0	103.0	102.0	102.0	102.0	103.0	104.0	105.0	105.0	105.0	104.0	104.0	102.0	101.0	99.0	97.0	96.0	94.0	92.0	91.0	90.0	89.0	88.0	88.0	88.0	88.0	88.0	88.0	88.0	88.0	88.0	89.0	89.0	89.0	89.0	89.0	89.0	89.0	88.0	88.0	87.0	86.0	86.0	86.0	86.0	89.0	94.0	100.0	107.0	115.0	121.0	126.0	127.0	127.0	127.0	125.0	122.0	120.0	118.0	116.0	114.0	113.0	112.0	111.0	110.0	109.0	109.0	109.0	109.0	109.0	109.0	109.0	108.0	107.0	106.0	104.0	103.0	101.0	100.0	98.0	96.0	95.0	93.0	92.0	92.0	91.0	91.0	90.0	90.0	90.0	90.0	89.0	89.0	89.0	89.0	114.0	113.0	112.0	112.0	113.0	113.0	113.0	113.0	112.0	111.0	108.0	106.0	103.0	100.0	97.0	95.0	93.0	91.0	89.0	88.0	87.0	86.0	85.0	84.0	84.0	84.0	84.0	84.0	84.0	84.0	83.0	83.0	82.0	83.0	83.0	84.0	85.0	85.0	86.0	87.0	88.0	91.0	94.0	100.0	107.0	116.0	124.0	131.0	136.0	139.0	140.0	139.0	136.0	133.0	130.0	127.0	124.0	121.0	118.0	115.0	113.0	111.0	110.0	109.0	108.0	107.0	107.0	106.0	104.0	102.0	100.0	98.0	95.0	92.0	89.0	86.0	83.0	80.0	78.0	77.0	76.0	76.0	75.0	75.0	75.0	74.0	74.0	74.0	73.0	73.0	74.0	76.0	80.0	85.0	91.0	97.0	102.0	105.0	106.0	105.0	103.0	100.0	98.0	95.0	93.0	92.0	90.0	88.0	87.0	86.0	85.0	86.0	87.0	88.0	90.0	91.0	92.0	92.0	92.0	92.0	91.0	90.0	88.0	86.0	84.0	83.0	82.0	82.0	82.0	82.0	82.0	82.0	82.0	82.0	82.0	82.0	83.0	84.0	86.0	90.0	96.0	102.0	109.0	115.0	119.0	121.0	122.0	121.0	119.0	117.0	115.0	113.0	111.0	108.0	106.0	104.0	103.0	102.0	102.0	103.0	104.0	105.0	106.0	107.0	108.0	107.0	107.0	106.0	104.0	103.0	101.0	100.0	98.0	96.0	95.0	93.0	92.0	91.0	90.0	90.0	89.0	89.0	88.0	88.0	88.0	87.0	87.0	88.0	90.0	94.0	100.0	106.0	112.0	118.0	121.0	122.0	122.0	120.0	117.0	114.0	112.0	109.0	107.0	105.0	104.0	103.0	103.0	103.0	103.0	104.0	105.0	106.0	107.0	107.0	107.0	106.0	105.0	103.0	101.0	99.0	97.0	95.0	93.0	92.0	90.0	89.0	88.0	87.0	87.0	86.0	86.0	86.0	86.0	86.0	86.0	86.0	86.0	86.0	86.0	86.0	85.0	85.0	84.0	85.0	87.0	90.0	96.0	103.0	111.0	117.0	122.0	125.0	125.0	124.0	122.0	120.0	117.0	114.0	112.0	110.0	109.0	108.0	108.0	108.0	108.0	110.0	111.0	112.0	113.0	114.0	113.0	113.0	111.0	110.0	108.0	106.0	103.0	101.0	99.0	97.0	96.0	94.0	93.0	92.0	91.0	90.0	90.0	89.0	88.0	88.0	87.0	86.0	86.0	87.0	90.0	94.0	100.0	106.0	112.0	116.0	119.0	120.0	119.0	118.0	115.0	113.0	110.0	108.0	106.0	104.0	103.0	102.0	102.0	102.0	103.0	104.0	105.0	106.0	106.0	106.0	105.0	104.0	103.0	101.0	100.0	98.0	96.0	94.0	92.0	91.0	90.0	88.0	87.0	87.0	86.0	86.0	85.0	85.0	85.0	85.0	85.0	84.0	84.0	84.0	83.0	83.0	82.0	82.0	82.0	82.0	81.0	81.0	81.0	81.0	80.0	80.0	80.0	79.0	80.0	82.0	86.0	93.0	101.0	110.0	118.0	123.0	127.0	127.0	126.0	124.0	122.0	119.0	117.0	115.0	114.0	112.0	111.0	110.0	110.0	111.0	111.0	112.0	113.0	113.0	113.0	112.0	111.0	110.0	109.0	107.0	105.0	103.0	101.0	99.0	97.0	95.0	94.0	92.0	91.0	90.0	90.0	89.0	89.0	88.0	88.0	87.0	87.0	86.0	86.0	85.0	84.0	84.0	83.0	83.0	82.0	82.0	83.0	83.0	84.0	84.0	84.0	84.0	84.0	84.0	85.0	88.0	94.0	101.0	110.0	118.0	125.0	128.0	131.0	131.0	130.0	127.0	125.0	123.0	120.0	118.0	116.0	114.0	113.0	111.0	110.0	109.0	109.0	109.0	109.0	109.0	108.0	108.0	107.0	106.0	105.0	104.0	102.0	101.0	99.0	97.0	96.0	94.0	93.0	92.0	91.0	90.0	89.0	88.0	87.0	86.0	86.0	86.0	86.0	86.0	85.0	85.0	84.0	84.0	83.0	83.0	82.0	82.0	82.0	81.0	81.0	80.0	79.0	79.0	79.0	80.0	82.0	87.0	93.0	101.0	109.0	115.0	120.0	123.0	123.0	122.0	120.0	118.0	115.0	113.0	111.0	109.0	107.0	106.0	104.0	103.0	103.0	103.0	103.0	103.0	103.0	103.0	103.0	103.0	103.0	103.0	102.0	101.0	101.0	99.0	98.0	97.0	95.0	94.0	93.0	92.0	92.0	91.0	91.0	91.0	91.0	91.0	90.0	90.0	90.0	89.0	89.0	89.0	88.0	88.0	87.0	87.0	87.0	86.0	86.0	85.0	85.0	85.0	87.0	90.0	96.0	103.0	110.0	117.0	122.0	125.0	126.0	126.0	124.0	121.0	118.0	115.0	113.0	110.0	108.0	107.0	105.0	104.0	104.0	104.0	105.0	105.0	106.0	107.0	107.0	106.0	106.0	105.0	103.0	101.0	99.0	97.0	95.0	94.0	92.0	91.0	90.0	89.0	89.0	88.0	88.0	88.0	88.0	88.0	88.0	89.0	89.0	89.0	89.0	88.0	88.0	88.0	88.0	88.0	87.0	87.0	86.0	86.0	85.0	85.0	86.0	89.0	94.0	101.0	109.0	116.0	122.0	126.0	127.0	127.0	126.0	123.0	120.0	116.0	113.0	110.0	107.0	105.0	103.0	102.0	101.0	101.0	102.0	103.0	104.0	105.0	106.0	106.0	105.0	104.0	102.0	101.0	99.0	97.0	95.0	93.0	92.0	91.0	90.0	89.0	89.0	88.0	88.0	88.0	88.0	88.0	89.0	89.0	90.0	90.0	90.0	90.0	90.0	89.0	89.0	88.0	87.0	87.0	86.0	86.0	87.0	89.0	94.0	100.0	107.0	114.0	119.0	123.0	125.0	125.0	123.0	120.0	117.0	114.0	111.0	108.0	105.0	102.0	100.0	99.0	99.0	100.0	101.0	102.0	104.0	105.0	106.0	106.0	105.0	104.0	102.0	100.0	98.0	96.0	94.0	92.0	91.0	91.0	91.0	92.0	92.0	92.0	93.0	93.0	94.0	94.0	95.0	94.0	94.0	94.0	94.0	95.0	97.0	101.0	106.0	112.0	117.0	122.0	125.0	127.0	127.0	125.0	123.0	120.0	117.0	114.0	112.0	109.0	107.0	105.0	103.0	103.0	103.0	105.0	106.0	107.0	108.0	108.0	108.0	107.0	106.0	105.0	103.0	101.0	100.0	98.0	96.0	95.0	94.0	93.0	93.0	92.0	92.0	91.0	91.0	91.0	91.0	90.0	90.0	90.0	89.0	89.0	89.0	89.0	90.0	91.0	92.0	93.0	94.0	95.0	97.0	102.0	108.0	117.0	126.0	133.0	140.0	144.0	146.0	145.0	143.0	140.0	137.0	133.0	130.0	128.0	127.0	124.0	122.0	121.0	119.0	118.0	117.0	116.0	115.0	115.0	113.0	112.0	110.0	107.0	105.0	102.0	99.0	96.0	93.0	91.0	89.0	87.0	85.0	83.0	82.0	80.0	79.0	78.0	77.0	76.0	75.0	74.0	74.0	73.0	73.0	73.0	73.0	73.0	73.0	72.0	72.0	73.0	75.0	80.0	87.0	95.0	103.0	109.0	114.0	117.0	118.0	118.0	116.0	114.0	111.0	109.0	107.0	106.0	104.0	102.0	101.0	100.0	100.0	100.0	100.0	101.0	102.0	102.0	101.0	101.0	100.0	99.0	98.0	96.0	95.0	93.0	91.0	90.0	89.0	88.0	87.0	87.0	86.0	86.0	86.0	86.0	86.0	87.0	87.0	87.0	87.0	87.0	87.0	87.0	86.0	86.0	85.0	84.0	84.0	83.0	83.0	84.0	87.0	92.0	99.0	107.0	114.0	120.0	124.0	126.0	126.0	124.0	121.0	118.0	115.0	112.0	109.0	107.0	105.0	103.0	102.0	101.0	101.0	101.0	102.0	102.0	103.0	103.0	102.0	102.0	101.0	99.0	98.0	96.0	95.0	93.0	91.0	90.0	89.0	88.0	87.0	86.0	86.0	86.0	86.0	85.0	85.0	85.0	85.0	86.0	86.0	85.0	85.0	84.0	83.0	83.0	82.0	81.0	80.0	79.0	79.0	80.0	84.0	90.0	98.0	107.0	115.0	121.0	124.0	126.0	126.0	124.0	122.0	120.0	118.0	116.0	114.0	112.0	112.0	111.0	111.0	112.0	113.0	114.0	116.0	117.0	118.0	118.0	117.0	115.0	113.0	111.0	109.0	107.0	104.0	103.0	101.0	99.0	98.0	97.0	96.0	95.0	94.0	92.0	91.0	90.0	90.0	89.0	89.0	89.0	89.0	89.0	88.0	88.0	88.0	87.0	88.0	88.0	88.0	90.0	93.0	98.0	104.0	111.0	117.0	122.0	126.0	127.0	126.0	125.0	123.0	120.0	117.0	114.0	111.0	108.0	105.0	103.0	101.0	100.0	100.0	100.0	101.0	101.0	101.0	101.0	101.0	100.0	99.0	97.0	96.0	94.0	93.0	92.0	91.0	90.0	89.0	88.0	86.0	85.0	85.0	84.0	83.0	83.0	82.0	82.0	81.0	80.0	80.0	82.0	85.0	90.0	96.0	102.0	109.0	114.0	117.0	119.0	120.0	120.0	119.0	117.0	115.0	113.0	111.0	109.0	107.0	105.0	104.0	103.0	103.0	104.0	105.0	106.0	106.0	106.0	105.0	103.0	101.0	99.0	97.0	95.0	93.0	91.0	89.0	87.0	86.0	85.0	83.0	82.0	82.0	82.0	82.0	82.0	82.0	82.0	82.0	82.0	81.0	81.0	81.0	80.0	80.0	79.0	78.0	78.0	78.0	80.0	84.0	90.0	99.0	107.0	116.0	122.0	126.0	127.0	126.0	124.0	121.0	118.0	115.0	113.0	112.0	110.0	109.0	108.0	108.0	107.0	107.0	108.0	108.0	108.0	108.0	107.0	106.0	105.0	103.0	101.0	99.0	98.0	96.0	94.0	93.0	91.0	90.0	89.0	89.0	89.0	88.0	88.0	88.0	88.0	88.0	88.0	88.0	89.0	90.0	91.0	93.0	96.0	101.0	108.0	115.0	122.0	127.0	131.0	133.0	133.0	131.0	128.0	125.0	122.0	119.0	116.0	113.0	110.0	108.0	105.0	104.0	103.0	103.0	103.0	104.0	105.0	105.0	105.0	104.0	103.0	101.0	99.0	97.0	95.0	94.0	93.0	91.0	90.0	89.0	88.0	87.0	86.0	85.0	84.0	83.0	83.0	83.0	84.0	84.0	84.0	84.0	83.0	83.0	82.0	81.0	81.0	80.0	80.0	80.0	79.0	79.0	80.0	81.0	84.0	88.0	95.0	103.0	110.0	116.0	120.0	121.0	120.0	118.0	114.0	111.0	108.0	105.0	103.0	101.0	98.0	96.0	94.0	91.0	90.0	89.0	89.0	90.0	90.0	91.0	91.0	91.0	91.0	90.0	89.0	88.0	88.0	87.0	87.0	87.0	86.0	86.0	86.0	86.0	86.0	87.0	87.0	88.0	89.0	89.0	90.0	91.0	93.0	94.0	95.0	96.0	98.0	100.0	104.0	109.0	114.0	118.0	120.0	120.0	118.0	115.0	111.0	107.0	103.0	99.0	95.0	92.0	90.0	88.0	87.0	87.0	87.0	89.0	90.0	91.0	92.0	92.0	92.0	92.0	92.0	91.0	91.0	91.0	90.0	90.0	90.0	89.0	89.0	88.0	87.0	86.0	85.0	84.0	84.0	83.0	83.0	83.0	83.0	83.0	84.0	85.0	86.0	90.0	95.0	101.0	108.0	114.0	120.0	123.0	124.0	123.0	120.0	116.0	113.0	109.0	105.0	102.0	99.0	97.0	95.0	94.0	94.0	95.0	97.0	99.0	100.0	102.0	102.0	103.0	102.0	100.0	97.0	94.0	91.0	88.0	85.0	83.0	83.0	83.0	84.0	86.0	88.0	90.0	92.0	93.0	94.0	95.0	95.0	96.0	96.0	98.0	101.0	105.0	109.0	113.0	116.0	116.0	115.0	113.0	109.0	106.0	103.0	100.0	98.0	97.0	95.0	94.0	94.0	94.0	94.0	95.0	97.0	99.0	101.0	102.0	103.0	103.0	102.0	101.0	100.0	99.0	98.0	97.0	96.0	96.0	95.0	94.0	94.0	93.0	92.0	92.0	92.0	92.0	92.0	92.0	93.0	93.0	95.0	97.0	102.0	108.0	115.0	122.0	126.0	128.0	127.0	126.0	123.0	119.0	116.0	113.0	111.0	109.0	107.0	105.0	104.0	102.0	101.0	100.0	100.0	100.0	100.0	100.0	100.0	100.0	100.0	100.0	100.0	100.0	100.0	100.0	100.0	99.0	98.0	97.0	96.0	95.0	95.0	94.0	94.0	93.0	92.0	91.0	89.0	88.0	87.0	88.0	91.0	96.0	102.0	110.0	117.0	121.0	123.0	123.0	121.0	118.0	115.0	113.0	110.0	109.0	107.0	106.0	105.0	103.0	102.0	101.0	100.0	99.0	99.0	99.0	98.0	97.0	96.0	94.0	91.0	89.0	87.0	86.0	84.0	83.0	82.0	82.0	81.0	81.0	81.0	81.0	82.0	82.0	82.0	83.0	84.0	84.0	85.0	85.0	85.0	86.0	86.0	86.0	87.0	90.0	94.0	100.0	106.0	112.0	117.0	120.0	121.0	121.0	119.0	117.0	115.0	114.0	113.0	112.0	112.0	111.0	111.0	110.0	109.0	108.0	108.0	107.0	107.0	107.0	106.0	106.0	105.0	104.0	103.0	101.0	100.0	98.0	97.0	96.0	94.0	93.0	92.0	91.0	91.0	91.0	91.0	91.0	91.0	91.0	91.0	91.0	92.0	94.0	98.0	102.0	107.0	112.0	115.0	117.0	116.0	114.0	112.0	109.0	106.0	104.0	102.0	100.0	98.0	96.0	95.0	94.0	93.0	92.0	91.0	90.0	90.0	89.0	88.0	87.0	86.0	85.0	84.0	83.0	82.0	82.0	82.0	84.0	85.0	87.0	90.0	92.0	94.0	95.0	96.0	96.0	97.0	97.0	98.0	98.0	98.0	98.0	98.0	98.0	98.0	99.0	100.0	103.0	107.0	113.0	119.0	124.0	127.0	128.0	127.0	126.0	124.0	121.0	118.0	115.0	113.0	111.0	109.0	107.0	104.0	102.0	101.0	100.0	100.0	100.0	99.0	98.0	97.0	95.0	94.0	92.0	90.0	89.0	87.0	86.0	85.0	84.0	83.0	83.0	83.0	83.0	84.0	84.0	85.0	86.0	86.0	87.0	87.0	87.0	87.0	87.0	87.0	87.0	88.0	90.0	92.0	97.0	102.0	107.0	112.0	114.0	115.0	114.0	112.0	109.0	106.0	104.0	102.0	100.0	99.0	98.0	97.0	96.0	96.0	96.0	97.0	98.0	99.0	100.0	101.0	101.0	100.0	100.0	98.0	97.0	96.0	95.0	94.0	93.0	92.0	92.0	91.0	91.0	91.0	92.0	93.0	93.0	94.0	95.0	95.0	96.0	97.0	98.0	101.0	105.0	110.0	115.0	119.0	121.0	122.0	121.0	118.0	116.0	113.0	110.0	107.0	105.0	103.0	101.0	99.0	98.0	98.0	98.0	99.0	100.0	101.0	102.0	103.0	103.0	103.0	103.0	102.0	100.0	99.0	97.0	96.0	95.0	94.0	93.0	93.0	93.0	93.0	94.0	95.0	95.0	96.0	96.0	96.0	96.0	97.0	99.0	102.0	107.0	113.0	118.0	121.0	123.0	122.0	120.0	117.0	114.0	110.0	108.0	105.0	104.0	103.0	102.0	101.0	101.0	101.0	101.0	101.0	102.0	103.0	103.0	103.0	103.0	102.0	101.0	100.0	99.0	98.0	97.0	96.0	96.0	95.0	94.0	93.0	93.0	93.0	93.0	93.0	93.0	94.0	95.0	95.0	96.0	96.0	96.0	96.0	95.0	96.0	97.0	99.0	103.0	109.0	115.0	121.0	126.0	127.0	127.0	125.0	121.0	118.0	114.0	111.0	109.0	107.0	105.0	104.0	103.0	103.0	103.0	104.0	105.0	106.0	106.0	107.0	107.0	107.0	106.0	105.0	103.0	102.0	101.0	99.0	98.0	97.0	95.0	94.0	93.0	92.0	92.0	92.0	92.0	92.0	92.0	93.0	93.0	93.0	93.0	93.0	93.0	93.0	93.0	94.0	97.0	101.0	106.0	112.0	117.0	120.0	121.0	120.0	118.0	115.0	112.0	109.0	106.0	104.0	103.0	102.0	100.0	99.0	99.0	99.0	99.0	99.0	100.0	100.0	101.0	101.0	100.0	99.0	98.0	97.0	95.0	94.0	93.0	92.0	91.0	90.0	89.0	89.0	88.0	88.0	88.0	88.0	89.0	90.0	91.0	92.0	92.0	92.0	92.0	92.0	92.0	91.0	91.0	91.0	92.0	94.0	99.0	104.0	110.0	116.0	120.0	121.0	121.0	119.0	116.0	113.0	110.0	107.0	105.0	102.0	101.0	99.0	98.0	98.0	98.0	99.0	101.0	102.0	103.0	104.0	104.0	103.0	102.0	101.0	100.0	98.0	97.0	95.0	94.0	93.0	92.0	91.0	91.0	90.0	90.0	91.0	91.0	92.0	93.0	93.0	94.0	94.0	94.0	94.0	95.0	96.0	99.0	103.0	108.0	113.0	117.0	119.0	120.0	119.0	117.0	114.0	111.0	108.0	106.0	103.0	101.0	99.0	97.0	96.0	96.0	96.0	97.0	99.0	100.0	102.0	102.0	102.0	102.0	101.0	100.0	98.0	97.0	96.0	95.0	94.0	93.0	92.0	91.0	91.0	91.0	91.0	91.0	91.0	91.0	91.0	91.0	91.0	91.0	91.0	91.0	91.0	91.0	91.0	90.0	90.0	91.0	93.0	97.0	103.0	110.0	117.0	123.0	126.0	127.0	126.0	124.0	120.0	117.0	114.0	111.0	108.0	106.0	104.0	103.0	101.0	101.0	100.0	100.0	101.0	102.0	103.0	103.0	103.0	103.0	102.0	100.0	99.0	98.0	97.0	95.0	94.0	93.0	92.0	92.0	91.0	91.0	91.0	91.0	91.0	91.0	92.0	92.0	92.0	92.0	92.0	92.0	92.0	91.0	91.0	90.0	91.0	93.0	96.0	101.0	108.0	114.0	119.0	122.0	124.0	123.0	122.0	119.0	116.0	113.0	110.0	108.0	106.0	105.0	103.0	103.0	103.0	103.0	104.0	105.0	106.0	107.0	107.0	106.0	106.0	105.0	103.0	102.0	100.0	99.0	98.0	96.0	95.0	94.0	93.0	93.0	92.0	92.0	92.0	92.0	92.0	92.0	92.0	92.0	92.0	92.0	92.0	92.0	91.0	91.0	91.0	91.0	92.0	95.0	99.0	105.0	111.0	116.0	119.0	121.0	121.0	120.0	118.0	115.0	112.0	109.0	107.0	105.0	103.0	101.0	100.0	100.0	100.0	100.0	101.0	102.0	103.0	103.0	103.0	103.0	102.0	100.0	99.0	97.0	96.0	94.0	93.0	92.0	91.0	90.0	90.0	90.0	91.0	91.0	92.0	92.0	93.0	93.0	93.0	93.0	94.0	93.0	93.0	93.0	92.0	92.0	92.0	92.0	93.0	96.0	100.0	106.0	112.0	116.0	120.0	121.0	120.0	118.0	115.0	112.0	109.0	107.0	105.0	103.0	101.0	100.0	99.0	98.0	99.0	99.0	101.0	102.0	103.0	103.0	103.0	102.0	101.0	100.0	99.0	98.0	96.0	95.0	93.0	92.0	92.0	92.0	92.0	92.0	93.0	93.0	93.0	93.0	93.0	93.0	94.0	93.0	93.0	93.0	93.0	92.0	91.0	91.0	91.0	91.0	93.0	96.0	101.0	107.0	112.0	117.0	121.0	122.0	121.0	119.0	116.0	113.0	110.0	107.0	104.0	102.0	100.0	99.0	98.0	98.0	98.0	99.0	101.0	102.0	103.0	104.0	104.0	103.0	102.0	101.0	99.0	98.0	96.0	95.0	93.0	92.0	91.0	91.0	90.0	90.0	89.0	89.0	89.0	89.0	90.0	90.0	90.0	91.0	91.0	92.0	92.0	92.0	91.0	91.0	92.0	94.0	97.0	101.0	107.0	113.0	117.0	120.0	122.0	121.0	120.0	117.0	114.0	111.0	108.0	106.0	103.0	101.0	100.0	99.0	99.0	100.0	101.0	103.0	105.0	106.0	107.0	107.0	106.0	105.0	104.0	102.0	101.0	99.0	98.0	96.0	95.0	95.0	94.0	93.0	93.0	93.0	93.0	93.0	93.0	93.0	94.0	93.0	93.0	93.0	93.0	94.0	96.0	100.0	105.0	111.0	116.0	120.0	123.0	123.0	123.0	121.0	119.0	117.0	114.0	112.0	111.0	109.0	108.0	107.0	106.0	107.0	108.0	110.0	112.0	113.0	115.0	115.0	115.0	114.0	113.0	111.0	110.0	108.0	106.0	104.0	102.0	101.0	100.0	99.0	98.0	97.0	96.0	96.0	95.0	95.0	95.0	94.0	94.0	94.0	93.0	93.0	92.0	92.0	91.0	91.0	90.0	90.0	89.0	90.0	92.0	96.0	101.0	108.0	115.0	121.0	125.0	126.0	126.0	124.0	121.0	118.0	115.0	113.0	110.0	108.0	106.0	105.0	104.0	103.0	103.0	103.0	104.0	105.0	105.0	105.0	105.0	104.0	103.0	102.0	100.0	99.0	97.0	96.0	94.0	93.0	92.0	92.0	91.0	91.0	91.0	91.0	93.0	94.0	96.0	98.0	99.0	99.0	99.0	99.0	98.0	98.0	97.0	97.0	97.0	98.0	100.0	104.0	110.0	117.0	125.0	132.0	138.0	142.0	144.0	145.0	145.0	143.0	141.0	138.0	134.0	130.0	126.0	122.0	119.0	116.0	113.0	111.0	109.0	107.0	106.0	104.0	102.0	100.0	97.0	93.0	89.0	86.0	82.0	79.0	76.0	74.0	72.0	71.0	69.0	68.0	67.0	66.0	66.0	67.0	69.0	70.0	70.0	70.0	69.0	67.0	65.0	63.0	61.0	62.0	65.0	70.0	76.0	82.0	88.0	92.0	95.0	96.0	96.0	95.0	93.0	92.0	91.0	90.0	89.0	89.0	89.0	89.0	90.0	91.0	92.0	94.0	96.0	97.0	97.0	96.0	94.0	92.0	89.0	88.0	87.0	86.0	86.0	85.0	85.0	85.0	85.0	86.0	86.0	86.0	86.0	87.0	87.0	88.0	88.0	87.0	88.0	89.0	92.0	98.0	105.0	113.0	121.0	127.0	129.0	130.0	128.0	126.0	121.0	117.0	113.0	110.0	108.0	105.0	104.0	102.0	101.0	100.0	100.0	101.0	102.0	103.0	104.0	103.0	102.0	100.0	97.0	95.0	93.0	91.0	90.0	90.0	89.0	89.0	89.0	90.0	91.0	92.0	93.0	92.0	91.0	89.0	88.0	88.0	89.0	93.0	98.0	104.0	110.0	115.0	117.0	118.0	117.0	116.0	114.0	112.0	110.0	108.0	106.0	104.0	102.0	101.0	100.0	99.0	98.0	98.0	98.0	99.0	100.0	100.0	100.0	100.0	99.0	97.0	95.0	93.0	91.0	89.0	88.0	87.0	86.0	85.0	85.0	84.0	83.0	83.0	82.0	82.0	82.0	84.0	86.0	90.0	95.0	102.0	109.0	115.0	119.0	121.0	122.0	121.0	119.0	116.0	113.0	110.0	108.0	106.0	105.0	104.0	103.0	102.0	102.0	103.0	104.0	105.0	106.0	107.0	107.0	106.0	104.0	102.0	100.0	98.0	96.0	94.0	92.0	90.0	88.0	86.0	84.0	83.0	82.0	81.0	81.0	81.0	83.0	85.0	89.0	94.0	101.0	109.0	118.0	126.0	132.0	136.0	138.0	137.0	135.0	132.0	128.0	125.0	121.0	118.0	116.0	113.0	111.0	110.0	108.0	107.0	106.0	106.0	106.0	106.0	106.0	106.0	105.0	104.0	103.0	101.0	100.0	98.0	97.0	95.0	93.0	92.0	91.0	90.0	89.0	88.0	88.0	88.0	88.0	88.0	88.0	87.0	87.0	86.0	85.0	84.0	84.0	84.0	83.0	84.0	85.0	88.0	92.0	99.0	106.0	114.0	120.0	125.0	127.0	127.0	127.0	125.0	122.0	119.0	117.0	114.0	111.0	109.0	106.0	103.0	101.0	100.0	99.0	99.0	98.0	97.0	96.0	94.0	90.0	87.0	83.0	80.0	77.0	75.0	73.0	71.0	70.0	69.0	68.0	67.0	67.0	67.0	67.0	67.0	67.0	68.0	70.0	71.0	72.0	72.0	72.0	71.0	71.0	71.0	72.0	74.0	78.0	83.0	89.0	94.0	99.0	103.0	104.0	104.0	102.0	100.0	97.0	94.0	92.0	90.0	88.0	87.0	87.0	86.0	86.0	86.0	86.0	87.0	88.0	89.0	89.0	89.0	89.0	89.0	88.0	87.0	86.0	85.0	83.0	82.0	81.0	80.0	79.0	78.0	78.0	78.0	78.0	78.0	79.0	80.0	80.0	80.0	80.0	79.0	79.0	79.0	78.0	79.0	79.0	81.0	84.0	89.0	95.0	102.0	108.0	113.0	115.0	115.0	114.0	112.0	110.0	108.0	106.0	105.0	104.0	103.0	102.0	101.0	101.0	101.0	102.0	103.0	104.0	105.0	105.0	106.0	106.0	105.0	104.0	102.0	99.0	96.0	93.0	92.0	90.0	90.0	91.0	93.0	95.0	96.0	97.0	98.0	98.0	98.0	97.0	96.0	96.0	96.0	96.0	97.0	100.0	104.0	109.0	114.0	119.0	122.0	123.0	122.0	120.0	117.0	113.0	110.0	106.0	95.0	96.0	97.0	98.0	101.0	105.0	110.0	117.0	123.0	127.0	129.0	129.0	128.0	126.0	123.0	119.0	116.0	113.0	110.0	107.0	105.0	104.0	103.0	102.0	103.0	105.0	107.0	109.0	111.0	112.0	112.0	112.0	111.0	109.0	108.0	106.0	104.0	102.0	101.0	99.0	98.0	96.0	95.0	94.0	93.0	93.0	92.0	91.0	90.0	90.0	90.0	91.0	95.0	99.0	104.0	109.0	112.0	113.0	112.0	110.0	108.0	105.0	102.0	99.0	97.0	95.0	93.0	92.0	91.0	90.0	90.0	91.0	92.0	93.0	95.0	97.0	98.0	98.0	98.0	97.0	96.0	96.0	95.0	94.0	94.0	93.0	92.0	91.0	91.0	91.0	91.0	91.0	91.0	91.0	91.0	91.0	92.0	94.0	99.0	104.0	110.0	116.0	119.0	120.0	118.0	116.0	113.0	109.0	106.0	104.0	103.0	102.0	101.0	100.0	99.0	99.0	99.0	100.0	102.0	104.0	106.0	107.0	108.0	108.0	108.0	107.0	105.0	104.0	103.0	102.0	101.0	99.0	98.0	97.0	97.0	96.0	96.0	96.0	95.0	95.0	95.0	95.0	95.0	95.0	97.0	100.0	105.0	112.0	118.0	124.0	127.0	128.0	127.0	126.0	123.0	119.0	116.0	113.0	111.0	110.0	108.0	107.0	106.0	104.0	103.0	103.0	103.0	103.0	103.0	104.0	104.0	103.0	102.0	101.0	100.0	99.0	97.0	96.0	95.0	94.0	92.0	91.0	90.0	89.0	89.0	88.0	87.0	87.0	87.0	87.0	87.0	87.0	88.0	88.0	88.0	89.0	88.0	88.0	88.0	88.0	88.0	88.0	90.0	94.0	100.0	107.0	113.0	119.0	122.0	122.0	121.0	118.0	114.0	111.0	108.0	106.0	104.0	102.0	100.0	99.0	99.0	99.0	99.0	101.0	102.0	104.0	104.0	105.0	105.0	105.0	104.0	103.0	102.0	101.0	100.0	99.0	98.0	97.0	96.0	96.0	95.0	95.0	94.0	94.0	94.0	94.0	94.0	94.0	95.0	95.0	95.0	95.0	95.0	94.0	94.0	94.0	93.0	93.0	94.0	96.0	100.0	105.0	111.0	117.0	121.0	123.0	122.0	121.0	119.0	116.0	113.0	110.0	108.0	106.0	105.0	104.0	103.0	102.0	101.0	101.0	101.0	102.0	104.0	105.0	105.0	105.0	104.0	103.0	102.0	101.0	99.0	98.0	96.0	95.0	94.0	94.0	93.0	93.0	93.0	93.0	92.0	92.0	91.0	90.0	90.0	90.0	90.0	90.0	91.0	91.0	91.0	90.0	90.0	89.0	88.0	88.0	88.0	89.0	92.0	97.0	104.0	112.0	118.0	123.0	126.0	125.0	123.0	120.0	116.0	113.0	110.0	107.0	105.0	103.0	100.0	99.0	97.0	97.0	97.0	98.0	99.0	101.0	102.0	103.0	103.0	103.0	102.0	101.0	100.0	99.0	98.0	97.0	97.0	96.0	96.0	96.0	96.0	97.0	97.0	97.0	97.0	97.0	97.0	98.0	98.0	98.0	98.0	98.0	98.0	98.0	97.0	97.0	96.0	95.0	95.0	96.0	98.0	102.0	108.0	114.0	120.0	124.0	126.0	125.0	123.0	120.0	117.0	114.0	111.0	108.0	106.0	103.0	102.0	100.0	100.0	100.0	101.0	102.0	104.0	105.0	106.0	107.0	107.0	106.0	105.0	104.0	102.0	101.0	99.0	98.0	97.0	95.0	95.0	94.0	93.0	93.0	93.0	93.0	92.0	93.0	93.0	93.0	93.0	93.0	93.0	93.0	93.0	93.0	92.0	92.0	91.0	91.0	91.0	92.0	94.0	97.0	102.0	108.0	114.0	119.0	122.0	122.0	121.0	119.0	115.0	112.0	108.0	105.0	102.0	99.0	97.0	95.0	95.0	95.0	95.0	97.0	98.0	100.0	101.0	102.0	103.0	102.0	101.0	100.0	98.0	96.0	95.0	94.0	93.0	92.0	91.0	91.0	90.0	90.0	90.0	91.0	91.0	92.0	92.0	93.0	93.0	93.0	93.0	93.0	92.0	92.0	93.0	96.0	100.0	105.0	111.0	116.0	120.0	121.0	121.0	120.0	117.0	114.0	111.0	108.0	105.0	102.0	100.0	98.0	96.0	96.0	96.0	97.0	99.0	101.0	103.0	104.0	105.0	105.0	104.0	103.0	102.0	100.0	98.0	97.0	96.0	95.0	94.0	93.0	92.0	92.0	92.0	92.0	92.0	92.0	92.0	93.0	93.0	93.0	94.0	94.0	94.0	94.0	94.0	94.0	93.0	93.0	92.0	92.0	92.0	93.0	97.0	102.0	109.0	116.0	122.0	126.0	127.0	127.0	126.0	123.0	120.0	116.0	113.0	110.0	108.0	106.0	105.0	104.0	104.0	104.0	105.0	107.0	108.0	109.0	110.0	110.0	110.0	109.0	108.0	107.0	105.0	104.0	103.0	102.0	101.0	101.0	100.0	100.0	99.0	99.0	99.0	99.0	99.0	99.0	99.0	99.0	99.0	98.0	97.0	95.0	94.0	92.0	92.0	94.0	98.0	103.0	109.0	115.0	119.0	121.0	122.0	121.0	120.0	118.0	116.0	115.0	113.0	111.0	109.0	108.0	107.0	106.0	106.0	107.0	108.0	109.0	110.0	110.0	110.0	110.0	109.0	108.0	106.0	104.0	102.0	100.0	98.0	96.0	95.0	93.0	92.0	91.0	90.0	88.0	87.0	87.0	86.0	86.0	86.0	86.0	86.0	85.0	85.0	85.0	85.0	84.0	84.0	83.0	82.0	81.0	81.0	82.0	86.0	92.0	100.0	107.0	114.0	119.0	121.0	121.0	119.0	117.0	114.0	112.0	110.0	108.0	106.0	105.0	103.0	102.0	101.0	100.0	100.0	101.0	101.0	101.0	101.0	100.0	99.0	98.0	97.0	95.0	95.0	94.0	93.0	93.0	93.0	93.0	93.0	94.0	95.0	96.0	96.0	97.0	97.0	97.0	98.0	98.0	98.0	98.0	98.0	97.0	97.0	96.0	96.0	95.0	94.0	94.0	94.0	96.0	100.0	105.0	111.0	117.0	123.0	126.0	127.0	126.0	124.0	122.0	118.0	115.0	112.0	109.0	106.0	103.0	100.0	98.0	97.0	97.0	98.0	99.0	100.0	101.0	101.0	100.0	99.0	98.0	98.0	97.0	96.0	96.0	96.0	97.0	97.0	98.0	99.0	99.0	100.0	100.0	100.0	99.0	99.0	99.0	99.0	99.0	99.0	98.0	97.0	96.0	95.0	93.0	92.0	91.0	90.0	92.0	95.0	100.0	107.0	113.0	118.0	122.0	123.0	123.0	121.0	120.0	118.0	116.0	115.0	114.0	112.0	111.0	109.0	108.0	108.0	108.0	108.0	109.0	110.0	110.0	110.0	110.0	109.0	108.0	106.0	104.0	102.0	100.0	98.0	97.0	95.0	94.0	93.0	92.0	91.0	90.0	90.0	89.0	89.0	89.0	89.0	89.0	89.0	89.0	89.0	89.0	88.0	88.0	87.0	86.0	86.0	85.0	84.0	84.0	85.0	88.0	92.0	99.0	106.0	113.0	118.0	122.0	124.0	123.0	122.0	120.0	118.0	116.0	114.0	112.0	111.0	109.0	108.0	106.0	104.0	104.0	103.0	104.0	104.0	105.0	105.0	104.0	104.0	103.0	102.0	100.0	99.0	98.0	97.0	96.0	95.0	94.0	92.0	91.0	90.0	89.0	88.0	88.0	87.0	87.0	86.0	86.0	85.0	85.0	84.0	84.0	84.0	83.0	82.0	82.0	81.0	80.0	78.0	77.0	77.0	77.0	79.0	84.0	90.0	97.0	104.0	110.0	114.0	115.0	115.0	114.0	112.0	110.0	108.0	106.0	105.0	104.0	102.0	101.0	100.0	100.0	100.0	100.0	100.0	101.0	101.0	101.0	100.0	100.0	98.0	97.0	95.0	94.0	92.0	91.0	89.0	88.0	87.0	86.0	85.0	85.0	84.0	84.0	84.0	84.0	84.0	84.0	84.0	84.0	83.0	83.0	83.0	82.0	81.0	81.0	80.0	80.0	79.0	78.0	78.0	79.0	82.0	87.0	94.0	102.0	111.0	118.0	123.0	126.0	127.0	126.0	125.0	123.0	120.0	118.0	117.0	116.0	114.0	113.0	111.0	109.0	108.0	106.0	106.0	106.0	107.0	107.0	107.0	107.0	106.0	105.0	103.0	101.0	99.0	97.0	95.0	92.0	90.0	87.0	84.0	82.0	80.0	78.0	77.0	77.0	76.0	76.0	76.0	75.0	75.0	75.0	74.0	74.0	74.0	74.0	74.0	74.0	74.0	75.0	76.0	76.0	77.0	77.0	78.0	78.0	78.0	79.0	81.0	85.0	91.0	99.0	107.0	116.0	122.0	126.0	127.0	127.0	126.0	124.0	122.0	120.0	119.0	118.0	117.0	116.0	115.0	114.0	113.0	112.0	112.0	111.0	111.0	111.0	110.0	109.0	108.0	106.0	104.0	103.0	101.0	100.0	99.0	97.0	96.0	95.0	95.0	95.0	95.0	95.0	95.0	95.0	95.0	95.0	95.0	94.0	93.0	92.0	89.0	87.0	84.0	81.0	80.0	79.0	80.0	82.0	83.0	85.0	86.0	87.0	87.0	85.0	83.0	80.0	77.0	76.0	77.0	82.0	90.0	100.0	111.0	120.0	126.0	127.0	126.0	123.0	119.0	115.0	112.0	111.0	111.0	112.0	112.0	112.0	111.0	110.0	108.0	107.0	108.0	109.0	111.0	112.0	113.0	112.0	111.0	109.0	107.0	105.0	103.0	102.0	101.0	101.0	100.0	99.0	98.0	97.0	96.0	95.0	94.0	92.0	91.0	90.0	89.0	88.0	88.0	87.0	86.0	84.0	83.0	81.0	81.0	81.0	82.0	83.0	84.0	85.0	85.0	86.0	85.0	85.0	84.0	84.0	83.0	84.0	86.0	90.0	96.0	103.0	109.0	115.0	118.0	119.0	118.0	116.0	114.0	111.0	110.0	109.0	109.0	109.0	109.0	108.0	107.0	106.0	106.0	105.0	106.0	106.0	106.0	106.0	105.0	104.0	103.0	102.0	100.0	99.0	97.0	95.0	94.0	92.0	91.0	91.0	90.0	90.0	90.0	90.0	91.0	92.0	93.0	94.0	95.0	95.0	95.0	95.0	94.0	93.0	92.0	92.0	91.0	90.0	90.0	89.0	88.0	88.0	88.0	87.0	87.0	87.0	86.0	86.0	86.0	87.0	90.0	95.0	101.0	108.0	116.0	122.0	126.0	127.0	127.0	125.0	123.0	120.0	117.0	114.0	112.0	110.0	109.0	107.0	106.0	104.0	104.0	104.0	104.0	104.0	104.0	103.0	102.0	100.0	98.0	97.0	95.0	93.0	92.0	90.0	88.0	87.0	86.0	86.0	86.0	88.0	89.0	91.0	93.0	94.0	94.0	95.0	95.0	95.0	95.0	95.0	95.0	94.0	93.0	92.0	90.0	89.0	87.0	85.0	84.0	83.0	82.0	81.0	80.0	80.0	81.0	82.0	85.0	91.0	99.0	108.0	117.0	126.0	131.0	135.0	135.0	134.0	130.0	126.0	122.0	117.0	113.0	109.0	106.0	103.0	101.0	99.0	99.0	99.0	99.0	100.0	100.0	99.0	98.0	96.0	93.0	91.0	89.0	86.0	84.0	83.0	81.0	80.0	78.0	77.0	76.0	75.0	75.0	75.0	75.0	75.0	76.0	76.0	76.0	77.0	77.0	78.0	79.0	80.0	81.0	82.0	83.0	85.0	86.0	87.0	88.0	88.0	88.0	88.0	88.0	88.0	89.0	92.0	96.0	102.0	110.0	117.0	123.0	127.0	128.0	127.0	126.0	122.0	119.0	117.0	115.0	114.0	113.0	112.0	110.0	108.0	108.0	109.0	110.0	112.0	115.0	116.0	117.0	116.0	116.0	115.0	114.0	113.0	112.0	111.0	110.0	108.0	106.0	104.0	102.0	100.0	99.0	97.0	96.0	95.0	94.0	93.0	92.0	91.0	90.0	88.0	86.0	84.0	82.0	81.0	81.0	84.0	89.0	96.0	104.0	112.0	118.0	121.0	122.0	122.0	120.0	118.0	116.0	115.0	115.0	115.0	115.0	114.0	112.0	109.0	106.0	104.0	103.0	104.0	105.0	107.0	108.0	109.0	109.0	107.0	106.0	104.0	101.0	99.0	97.0	94.0	92.0	90.0	88.0	86.0	84.0	82.0	80.0	79.0	78.0	77.0	76.0	76.0	75.0	76.0	78.0	82.0	87.0	94.0	101.0	107.0	111.0	113.0	113.0	112.0	110.0	108.0	106.0	104.0	103.0	102.0	101.0	100.0	99.0	98.0	97.0	96.0	96.0	97.0	97.0	98.0	99.0	100.0	100.0	100.0	99.0	98.0	96.0	94.0	92.0	91.0	90.0	89.0	89.0	88.0	87.0	86.0	85.0	84.0	84.0	83.0	83.0	83.0	83.0	83.0	85.0	89.0	95.0	103.0	112.0	120.0	126.0	128.0	130.0	129.0	127.0	124.0	120.0	116.0	112.0	110.0	108.0	107.0	107.0	108.0	108.0	108.0	107.0	108.0	108.0	108.0	108.0	108.0	107.0	106.0	105.0	103.0	101.0	99.0	97.0	95.0	94.0	92.0	91.0	90.0	89.0	88.0	87.0	87.0	87.0	88.0	89.0	90.0	92.0	94.0	96.0	99.0	102.0	105.0	110.0	116.0	125.0	134.0	145.0	153.0	159.0	163.0	163.0	162.0	160.0	157.0	153.0	148.0	144.0	141.0	138.0	136.0	135.0	135.0	135.0	137.0	137.0	137.0	135.0	130.0	126.0	118.0	111.0	103.0	95.0	87.0	80.0	74.0	69.0	65.0	62.0	60.0	59.0	60.0	61.0	64.0	68.0	73.0	78.0	82.0	87.0	91.0	95.0	98.0	103.0	109.0	116.0	124.0	132.0	139.0	144.0	145.0	144.0	140.0	134.0	128.0	123.0	118.0	113.0	109.0	106.0	105.0	104.0	105.0	106.0	108.0	109.0	110.0	111.0	112.0	112.0	111.0	109.0	107.0	104.0	100.0	96.0	92.0	87.0	82.0	77.0	72.0	69.0	66.0	64.0	63.0	62.0	62.0	63.0	64.0	65.0	65.0	64.0	62.0	61.0	60.0	62.0	65.0	72.0	80.0	89.0	96.0	102.0	104.0	104.0	103.0	100.0	96.0	93.0	89.0	87.0	84.0	82.0	80.0	77.0	75.0	73.0	70.0	68.0	67.0	66.0	65.0	65.0	65.0	64.0	64.0	64.0	64.0	64.0	65.0	66.0	67.0	69.0	71.0	71.0	72.0	71.0	70.0	69.0	69.0	69.0	70.0	71.0	72.0	73.0	74.0	76.0	77.0	79.0	81.0	82.0	85.0	88.0	94.0	102.0	111.0	121.0	128.0	134.0	136.0	136.0	135.0	133.0	132.0	130.0	130.0	129.0	128.0	127.0	125.0	124.0	122.0	119.0	117.0	115.0	113.0	111.0	110.0	109.0	108.0	107.0	107.0	106.0	105.0	104.0	103.0	102.0	101.0	99.0	97.0	95.0	92.0	90.0	88.0	86.0	84.0	82.0	81.0	80.0	79.0	78.0	78.0	77.0	77.0	78.0	79.0	82.0	87.0	93.0	98.0	103.0	105.0	106.0	106.0	105.0	105.0	104.0	103.0	103.0	102.0	102.0	101.0	100.0	100.0	99.0	99.0	99.0	99.0	100.0	101.0	102.0	102.0	102.0	102.0	101.0	100.0	98.0	97.0	96.0	95.0	94.0	93.0	92.0	91.0	91.0	91.0	91.0	91.0	91.0	92.0	93.0	94.0	95.0	96.0	96.0	96.0	96.0	96.0	96.0	95.0	94.0	94.0	94.0	95.0	98.0	103.0	109.0	115.0	120.0	122.0	123.0	121.0	119.0	116.0	113.0	110.0	108.0	106.0	103.0	101.0	100.0	98.0	97.0	97.0	96.0	97.0	97.0	97.0	98.0	98.0	97.0	97.0	96.0	96.0	95.0	94.0	94.0	93.0	93.0	93.0	92.0	92.0	92.0	92.0	92.0	92.0	92.0	92.0	92.0	92.0	92.0	92.0	92.0	91.0	91.0	91.0	91.0	91.0	92.0	94.0	98.0	104.0	111.0	117.0	122.0	125.0	125.0	124.0	121.0	119.0	116.0	114.0	112.0	111.0	109.0	108.0	107.0	105.0	104.0	104.0	103.0	103.0	103.0	103.0	103.0	103.0	102.0	102.0	101.0	100.0	99.0	98.0	97.0	96.0	95.0	95.0	94.0	94.0	93.0	93.0	92.0	92.0	92.0	91.0	91.0	91.0	91.0	91.0	90.0	90.0	90.0	90.0	90.0	90.0	90.0	90.0	90.0	91.0	92.0	96.0	101.0	108.0	115.0	121.0	124.0	125.0	124.0	122.0	119.0	116.0	114.0	112.0	110.0	109.0	107.0	106.0	105.0	104.0	103.0	103.0	102.0	102.0	102.0	102.0	102.0	102.0	101.0	100.0	99.0	98.0	97.0	96.0	95.0	94.0	94.0	93.0	92.0	92.0	92.0	92.0	92.0	92.0	92.0	92.0	92.0	92.0	92.0	92.0	92.0	92.0	92.0	92.0	92.0	92.0	92.0	92.0	92.0	91.0	91.0	91.0	92.0	94.0	97.0	103.0	109.0	116.0	121.0	124.0	124.0	123.0	121.0	118.0	115.0	113.0	111.0	109.0	108.0	106.0	105.0	104.0	103.0	103.0	103.0	103.0	103.0	103.0	103.0	103.0	103.0	102.0	102.0	101.0	100.0	99.0	98.0	97.0	96.0	96.0	95.0	95.0	94.0	94.0	93.0	93.0	93.0	92.0	92.0	92.0	92.0	92.0	92.0	92.0	92.0	92.0	91.0	91.0	91.0	91.0	91.0	91.0	91.0	91.0	92.0	93.0	96.0	100.0	106.0	111.0	116.0	119.0	120.0	119.0	116.0	114.0	111.0	109.0	107.0	105.0	104.0	103.0	102.0	101.0	100.0	100.0	100.0	101.0	101.0	102.0	102.0	103.0	103.0	102.0	102.0	101.0	100.0	100.0	99.0	98.0	98.0	97.0	96.0	96.0	95.0	95.0	95.0	94.0	94.0	94.0	93.0	93.0	93.0	93.0	93.0	93.0	93.0	93.0	93.0	93.0	94.0	96.0	100.0	106.0	112.0	117.0	120.0	121.0	121.0	119.0	116.0	114.0	111.0	109.0	107.0	105.0	104.0	103.0	102.0	101.0	101.0	101.0	101.0	101.0	102.0	102.0	103.0	103.0	103.0	102.0	101.0	100.0	99.0	98.0	98.0	97.0	96.0	95.0	95.0	94.0	94.0	94.0	93.0	93.0	93.0	93.0	92.0	92.0	92.0	92.0	92.0	92.0	92.0	92.0	92.0	92.0	92.0	92.0	91.0	92.0	92.0	93.0	96.0	100.0	106.0	113.0	120.0	124.0	127.0	127.0	125.0	122.0	119.0	117.0	114.0	112.0	111.0	109.0	108.0	107.0	106.0	106.0	105.0	105.0	105.0	105.0	105.0	105.0	106.0	105.0	105.0	105.0	104.0	103.0	102.0	101.0	100.0	98.0	97.0	96.0	95.0	94.0	94.0	93.0	92.0	92.0	92.0	91.0	91.0	91.0	91.0	91.0	91.0	92.0	92.0	92.0	93.0	93.0	93.0	93.0	93.0	93.0	94.0	94.0	97.0	101.0	107.0	114.0	121.0	126.0	128.0	128.0	127.0	124.0	121.0	118.0	115.0	112.0	110.0	109.0	107.0	106.0	104.0	104.0	103.0	103.0	103.0	103.0	104.0	105.0	105.0	106.0	107.0	107.0	107.0	107.0	106.0	106.0	105.0	104.0	103.0	102.0	100.0	98.0	96.0	94.0	92.0	91.0	91.0	91.0	90.0	90.0	90.0	90.0	90.0	90.0	91.0	92.0	92.0	93.0	94.0	95.0	95.0	95.0	95.0	96.0	97.0	101.0	106.0	113.0	120.0	126.0	129.0	130.0	129.0	127.0	123.0	120.0	117.0	114.0	112.0	111.0	109.0	108.0	108.0	107.0	107.0	107.0	108.0	108.0	108.0	108.0	108.0	107.0	106.0	105.0	104.0	102.0	100.0	98.0	97.0	95.0	94.0	93.0	92.0	91.0	91.0	90.0	90.0	89.0	89.0	88.0	88.0	87.0	87.0	86.0	86.0	85.0	85.0	85.0	84.0	84.0	83.0	83.0	82.0	83.0	84.0	86.0	91.0	97.0	105.0	113.0	120.0	124.0	126.0	125.0	123.0	120.0	116.0	112.0	108.0	105.0	103.0	101.0	99.0	98.0	97.0	97.0	97.0	98.0	100.0	102.0	104.0	106.0	107.0	108.0	107.0	107.0	105.0	104.0	103.0	102.0	100.0	99.0	97.0	95.0	93.0	91.0	89.0	88.0	87.0	86.0	85.0	85.0	85.0	84.0	84.0	84.0	84.0	85.0	87.0	91.0	96.0	102.0	109.0	114.0	117.0	118.0	118.0	116.0	114.0	112.0	109.0	107.0	106.0	104.0	102.0	101.0	100.0	99.0	99.0	100.0	101.0	102.0	102.0	103.0	103.0	103.0	103.0	102.0	100.0	99.0	98.0	96.0	95.0	94.0	93.0	92.0	91.0	90.0	89.0	88.0	87.0	87.0	86.0	86.0	86.0	85.0	85.0	85.0	85.0	85.0	86.0	90.0	95.0	102.0	109.0	117.0	122.0	126.0	127.0	126.0	124.0	121.0	119.0	116.0	114.0	112.0	111.0	109.0	108.0	106.0	105.0	105.0	105.0	105.0	106.0	106.0	107.0	107.0	106.0	105.0	104.0	103.0	101.0	100.0	98.0	97.0	95.0	94.0	92.0	91.0	90.0	89.0	88.0	87.0	87.0	86.0	86.0	85.0	85.0	84.0	84.0	84.0	84.0	83.0	83.0	83.0	83.0	83.0	84.0	86.0	91.0	99.0	108.0	117.0	125.0	130.0	132.0	133.0	131.0	129.0	127.0	125.0	123.0	121.0	120.0	119.0	118.0	116.0	115.0	114.0	112.0	111.0	111.0	110.0	110.0	109.0	109.0	108.0	107.0	106.0	104.0	103.0	101.0	99.0	98.0	96.0	95.0	93.0	92.0	91.0	90.0	89.0	88.0	87.0	86.0	85.0	85.0	84.0	84.0	83.0	82.0	82.0	81.0	81.0	81.0	82.0	85.0	91.0	99.0	107.0	116.0	124.0	128.0	130.0	130.0	129.0	127.0	126.0	124.0	122.0	120.0	119.0	117.0	116.0	114.0	112.0	110.0	109.0	108.0	108.0	107.0	107.0	107.0	106.0	105.0	104.0	103.0	102.0	100.0	98.0	96.0	94.0	92.0	90.0	88.0	86.0	85.0	83.0	82.0	82.0	81.0	81.0	80.0	80.0	80.0	80.0	79.0	79.0	79.0	78.0	78.0	77.0	77.0	76.0	76.0	76.0	77.0	80.0	86.0	94.0	103.0	113.0	121.0	126.0	128.0	128.0	127.0	126.0	124.0	121.0	119.0	118.0	116.0	114.0	113.0	111.0	110.0	109.0	108.0	108.0	108.0	108.0	107.0	107.0	106.0	106.0	104.0	103.0	101.0	99.0	97.0	95.0	93.0	91.0	89.0	87.0	86.0	84.0	83.0	82.0	81.0	80.0	80.0	80.0	80.0	79.0	79.0	78.0	78.0	77.0	77.0	77.0	76.0	76.0	76.0	76.0	75.0	75.0	74.0	75.0	76.0	80.0	86.0	94.0	104.0	113.0	121.0	126.0	127.0	127.0	126.0	123.0	121.0	118.0	116.0	114.0	113.0	112.0	110.0	109.0	107.0	106.0	106.0	106.0	106.0	106.0	106.0	106.0	106.0	105.0	105.0	103.0	102.0	100.0	97.0	95.0	93.0	91.0	89.0	87.0	85.0	83.0	81.0	80.0	79.0	78.0	78.0	78.0	78.0	78.0	78.0	78.0	78.0	78.0	78.0	78.0	78.0	78.0	78.0	77.0	77.0	77.0	76.0	75.0	75.0	74.0	74.0	76.0	80.0	87.0	96.0	106.0	115.0	122.0	126.0	127.0	127.0	125.0	122.0	119.0	117.0	115.0	113.0	111.0	110.0	109.0	108.0	107.0	107.0	107.0	107.0	107.0	108.0	108.0	108.0	108.0	107.0	105.0	104.0	102.0	100.0	99.0	97.0	95.0	93.0	91.0	90.0	89.0	87.0	86.0	85.0	85.0	84.0	83.0	83.0	83.0	82.0	82.0	82.0	81.0	81.0	81.0	80.0	80.0	79.0	79.0	79.0	79.0	79.0	78.0	78.0	78.0	78.0	77.0	77.0	78.0	80.0	85.0	93.0	102.0	112.0	121.0	127.0	129.0	129.0	128.0	126.0	123.0	120.0	117.0	115.0	114.0	113.0	112.0	111.0	110.0	109.0	109.0	109.0	110.0	111.0	112.0	112.0	112.0	112.0	111.0	110.0	109.0	107.0	105.0	103.0	101.0	99.0	98.0	96.0	94.0	93.0	92.0	91.0	90.0	89.0	89.0	88.0	88.0	88.0	88.0	88.0	88.0	87.0	87.0	87.0	87.0	86.0	86.0	108.0	107.0	108.0	109.0	110.0	110.0	111.0	111.0	111.0	110.0	108.0	106.0	104.0	102.0	100.0	98.0	95.0	93.0	91.0	89.0	87.0	86.0	84.0	83.0	82.0	81.0	81.0	80.0	80.0	79.0	79.0	79.0	78.0	78.0	78.0	77.0	77.0	77.0	77.0	76.0	76.0	75.0	75.0	75.0	74.0	75.0	77.0	81.0	88.0	96.0	105.0	114.0	120.0	123.0	124.0	122.0	120.0	117.0	114.0	112.0	110.0	108.0	107.0	106.0	104.0	103.0	103.0	103.0	104.0	105.0	106.0	108.0	109.0	110.0	110.0	109.0	108.0	107.0	105.0	104.0	102.0	101.0	99.0	98.0	97.0	96.0	95.0	94.0	93.0	92.0	91.0	90.0	90.0	89.0	88.0	88.0	87.0	87.0	86.0	86.0	86.0	85.0	85.0	85.0	85.0	85.0	85.0	85.0	85.0	84.0	84.0	85.0	87.0	91.0	98.0	107.0	117.0	126.0	131.0	135.0	135.0	134.0	131.0	127.0	124.0	121.0	118.0	115.0	113.0	111.0	110.0	109.0	109.0	109.0	109.0	110.0	111.0	112.0	113.0	113.0	113.0	113.0	112.0	110.0	108.0	106.0	104.0	102.0	100.0	99.0	97.0	95.0	93.0	92.0	91.0	90.0	89.0	88.0	87.0	87.0	86.0	86.0	86.0	85.0	85.0	84.0	84.0	84.0	83.0	83.0	83.0	83.0	82.0	82.0	81.0	81.0	81.0	82.0	84.0	89.0	97.0	106.0	116.0	125.0	130.0	133.0	133.0	131.0	128.0	126.0	123.0	120.0	117.0	115.0	113.0	112.0	111.0	110.0	109.0	109.0	109.0	110.0	110.0	111.0	112.0	112.0	112.0	111.0	110.0	108.0	107.0	105.0	103.0	101.0	99.0	97.0	96.0	94.0	93.0	91.0	90.0	89.0	88.0	87.0	86.0	86.0	85.0	85.0	85.0	84.0	84.0	84.0	83.0	83.0	83.0	82.0	82.0	81.0	81.0	80.0	80.0	81.0	84.0	89.0	97.0	107.0	117.0	127.0	132.0	136.0	136.0	135.0	132.0	129.0	126.0	123.0	119.0	117.0	114.0	112.0	110.0	109.0	108.0	109.0	110.0	111.0	113.0	114.0	115.0	116.0	116.0	115.0	114.0	112.0	110.0	108.0	106.0	104.0	102.0	100.0	99.0	97.0	95.0	94.0	93.0	92.0	90.0	89.0	89.0	88.0	87.0	87.0	86.0	86.0	86.0	85.0	85.0	84.0	83.0	82.0	81.0	81.0	83.0	86.0	92.0	100.0	109.0	117.0	124.0	127.0	129.0	128.0	126.0	123.0	120.0	116.0	113.0	110.0	107.0	104.0	102.0	100.0	99.0	98.0	99.0	100.0	101.0	102.0	103.0	103.0	103.0	102.0	101.0	100.0	98.0	96.0	94.0	92.0	90.0	88.0	86.0	85.0	84.0	84.0	84.0	84.0	83.0	83.0	83.0	82.0	82.0	82.0	81.0	81.0	81.0	81.0	80.0	80.0	79.0	79.0	79.0	80.0	83.0	88.0	95.0	105.0	115.0	124.0	129.0	133.0	134.0	133.0	130.0	127.0	125.0	122.0	120.0	117.0	115.0	113.0	112.0	111.0	111.0	111.0	112.0	112.0	113.0	114.0	114.0	114.0	113.0	112.0	110.0	108.0	106.0	104.0	102.0	99.0	97.0	95.0	93.0	91.0	90.0	88.0	87.0	86.0	85.0	84.0	83.0	83.0	82.0	82.0	82.0	81.0	81.0	80.0	80.0	79.0	79.0	79.0	81.0	84.0	90.0	99.0	109.0	120.0	129.0	135.0	139.0	139.0	138.0	135.0	132.0	129.0	127.0	125.0	123.0	122.0	120.0	119.0	118.0	116.0	116.0	115.0	115.0	115.0	115.0	115.0	114.0	113.0	112.0	110.0	108.0	106.0	104.0	101.0	99.0	96.0	94.0	92.0	89.0	87.0	86.0	84.0	83.0	82.0	82.0	82.0	81.0	81.0	81.0	81.0	81.0	80.0	80.0	79.0	79.0	78.0	77.0	76.0	76.0	75.0	75.0	78.0	82.0	90.0	100.0	112.0	123.0	130.0	136.0	138.0	138.0	136.0	133.0	130.0	127.0	125.0	123.0	121.0	119.0	118.0	116.0	115.0	114.0	114.0	113.0	113.0	113.0	113.0	113.0	112.0	111.0	110.0	108.0	106.0	104.0	101.0	99.0	96.0	93.0	91.0	89.0	86.0	84.0	82.0	81.0	80.0	79.0	78.0	77.0	77.0	76.0	76.0	75.0	75.0	75.0	75.0	74.0	74.0	74.0	74.0	73.0	73.0	72.0	71.0	71.0	72.0	76.0	82.0	92.0	103.0	114.0	124.0	129.0	133.0	133.0	132.0	129.0	127.0	124.0	121.0	119.0	117.0	116.0	115.0	114.0	113.0	113.0	113.0	113.0	113.0	113.0	113.0	113.0	113.0	111.0	110.0	108.0	106.0	104.0	101.0	99.0	96.0	94.0	92.0	89.0	87.0	86.0	84.0	82.0	81.0	80.0	80.0	79.0	79.0	78.0	78.0	78.0	77.0	77.0	77.0	76.0	76.0	76.0	75.0	75.0	74.0	74.0	73.0	73.0	73.0	76.0	81.0	90.0	101.0	113.0	124.0	132.0	138.0	140.0	140.0	138.0	135.0	132.0	129.0	127.0	124.0	122.0	120.0	118.0	116.0	115.0	114.0	114.0	114.0	115.0	116.0	116.0	115.0	115.0	113.0	112.0	109.0	107.0	105.0	102.0	99.0	96.0	94.0	91.0	89.0	86.0	84.0	82.0	80.0	79.0	78.0	77.0	76.0	75.0	74.0	74.0	73.0	72.0	72.0	71.0	71.0	70.0	69.0	68.0	67.0	66.0	65.0	66.0	69.0	76.0	85.0	95.0	106.0	115.0	122.0	125.0	127.0	126.0	124.0	122.0	119.0	116.0	113.0	111.0	108.0	107.0	105.0	104.0	104.0	104.0	105.0	106.0	107.0	108.0	108.0	108.0	106.0	105.0	103.0	101.0	98.0	96.0	94.0	91.0	89.0	87.0	85.0	83.0	81.0	79.0	78.0	77.0	76.0	75.0	74.0	73.0	73.0	72.0	72.0	71.0	70.0	70.0	70.0	69.0	69.0	69.0	68.0	68.0	68.0	68.0	69.0	70.0	74.0	80.0	90.0	102.0	114.0	126.0	134.0	139.0	141.0	140.0	138.0	135.0	132.0	128.0	127.0	124.0	123.0	121.0	120.0	119.0	118.0	117.0	118.0	118.0	119.0	119.0	119.0	119.0	118.0	117.0	115.0	113.0	110.0	108.0	105.0	102.0	99.0	96.0	94.0	91.0	89.0	87.0	85.0	84.0	82.0	81.0	81.0	80.0	79.0	79.0	78.0	78.0	77.0	76.0	76.0	75.0	74.0	74.0	73.0	73.0	72.0	71.0	70.0	71.0	72.0	76.0	84.0	94.0	106.0	119.0	128.0	135.0	138.0	138.0	137.0	134.0	131.0	127.0	125.0	122.0	120.0	118.0	115.0	114.0	112.0	111.0	111.0	111.0	112.0	113.0	113.0	113.0	113.0	112.0	111.0	109.0	107.0	105.0	102.0	100.0	97.0	95.0	92.0	90.0	88.0	86.0	84.0	83.0	81.0	80.0	79.0	78.0	78.0	77.0	77.0	76.0	76.0	76.0	76.0	75.0	75.0	75.0	75.0	75.0	74.0	74.0	73.0	73.0	75.0	79.0	86.0	97.0	109.0	122.0	132.0	140.0	144.0	145.0	144.0	141.0	137.0	134.0	130.0	127.0	125.0	122.0	120.0	118.0	116.0	115.0	115.0	116.0	117.0	118.0	119.0	120.0	120.0	119.0	118.0	117.0	114.0	112.0	110.0	107.0	104.0	102.0	99.0	97.0	95.0	93.0	91.0	90.0	88.0	87.0	86.0	86.0	85.0	85.0	85.0	84.0	84.0	83.0	83.0	82.0	81.0	80.0	79.0	78.0	77.0	78.0	81.0	87.0	96.0	107.0	119.0	127.0	134.0	138.0	138.0	136.0	133.0	128.0	125.0	120.0	116.0	112.0	108.0	105.0	102.0	100.0	99.0	99.0	100.0	101.0	103.0	104.0	104.0	104.0	103.0	102.0	100.0	97.0	95.0	92.0	89.0	86.0	83.0	80.0	77.0	75.0	73.0	71.0	69.0	68.0	66.0	65.0	64.0	63.0	62.0	61.0	62.0	64.0	69.0	77.0	88.0	100.0	112.0	121.0	126.0	128.0	128.0	127.0	124.0	121.0	118.0	115.0	113.0	110.0	108.0	106.0	104.0	103.0	103.0	103.0	104.0	105.0	106.0	107.0	107.0	107.0	106.0	104.0	102.0	100.0	97.0	95.0	92.0	90.0	87.0	85.0	83.0	81.0	79.0	78.0	76.0	75.0	74.0	73.0	72.0	72.0	71.0	70.0	69.0	69.0	68.0	67.0	67.0	66.0	66.0	65.0	65.0	65.0	66.0	66.0	67.0	67.0	69.0	73.0	80.0	92.0	106.0	121.0	133.0	143.0	149.0	151.0	150.0	147.0	144.0	141.0	138.0	135.0	133.0	131.0	129.0	128.0	127.0	127.0	127.0	127.0	126.0	126.0	126.0	126.0	125.0	124.0	122.0	120.0	117.0	114.0	111.0	108.0	105.0	102.0	98.0	95.0	92.0	90.0	87.0	85.0	83.0	82.0	80.0	79.0	78.0	77.0	77.0	76.0	76.0	75.0	75.0	74.0	73.0	72.0	71.0	70.0	70.0	71.0	73.0	79.0	89.0	101.0	115.0	127.0	137.0	143.0	145.0	144.0	142.0	139.0	136.0	132.0	129.0	127.0	124.0	121.0	119.0	116.0	115.0	114.0	113.0	113.0	113.0	114.0	114.0	114.0	113.0	112.0	111.0	109.0	107.0	104.0	101.0	98.0	96.0	93.0	90.0	88.0	85.0	83.0	81.0	80.0	78.0	78.0	77.0	77.0	76.0	76.0	76.0	75.0	75.0	74.0	74.0	73.0	72.0	71.0	70.0	69.0	68.0	69.0	71.0	76.0	85.0	98.0	112.0	126.0	136.0	143.0	147.0	147.0	145.0	142.0	138.0	135.0	132.0	129.0	127.0	124.0	122.0	120.0	119.0	118.0	118.0	119.0	120.0	121.0	122.0	122.0	122.0	121.0	119.0	117.0	115.0	113.0	110.0	108.0	105.0	103.0	100.0	98.0	96.0	94.0	92.0	90.0	89.0	88.0	86.0	85.0	84.0	82.0	81.0	79.0	78.0	78.0	80.0	84.0	91.0	102.0	114.0	125.0	133.0	139.0	141.0	141.0	139.0	136.0	132.0	127.0	124.0	120.0	117.0	113.0	110.0	108.0	106.0	106.0	106.0	108.0	109.0	111.0	112.0	112.0	112.0	110.0	108.0	106.0	102.0	99.0	95.0	92.0	88.0	85.0	81.0	78.0	75.0	73.0	70.0	68.0	66.0	65.0	63.0	62.0	61.0	60.0	59.0	58.0	57.0	56.0	55.0	54.0	52.0	51.0	50.0	49.0	48.0	49.0	51.0	58.0	68.0	80.0	94.0	107.0	116.0	122.0	124.0	125.0	123.0	121.0	119.0	117.0	115.0	113.0	111.0	109.0	107.0	106.0	105.0	105.0	106.0	107.0	108.0	108.0	109.0	109.0	108.0	106.0	105.0	102.0	100.0	97.0	94.0	91.0	89.0	86.0	84.0	82.0	81.0	80.0	78.0	77.0	76.0	75.0	73.0	72.0	71.0	70.0	70.0	71.0	74.0	80.0	90.0	103.0	118.0	130.0	141.0	148.0	151.0	151.0	148.0	145.0	142.0	139.0	136.0	134.0	131.0	129.0	127.0	125.0	123.0	121.0	120.0	119.0	119.0	118.0	118.0	117.0	115.0	113.0	111.0	108.0	105.0	102.0	98.0	95.0	92.0	90.0	87.0	84.0	82.0	80.0	78.0	77.0	75.0	74.0	73.0	72.0	70.0	69.0	68.0	67.0	65.0	64.0	63.0	62.0	61.0	60.0	60.0	60.0	60.0	60.0	60.0	59.0	59.0	59.0	59.0	61.0	66.0	74.0	88.0	104.0	122.0	136.0	148.0	154.0	156.0	155.0	152.0	148.0	145.0	142.0	139.0	137.0	135.0	134.0	132.0	130.0	128.0	127.0	127.0	127.0	127.0	127.0	126.0	125.0	124.0	122.0	120.0	117.0	114.0	111.0	108.0	104.0	100.0	97.0	93.0	90.0	87.0	85.0	82.0	80.0	78.0	77.0	76.0	75.0	74.0	73.0	72.0	72.0	71.0	71.0	70.0	69.0	68.0	67.0	66.0	65.0	65.0	68.0	75.0	86.0	100.0	116.0	129.0	141.0	148.0	151.0	150.0	148.0	144.0	140.0	136.0	132.0	129.0	126.0	123.0	120.0	117.0	115.0	113.0	112.0	112.0	113.0	113.0	113.0	113.0	112.0	111.0	109.0	106.0	103.0	100.0	97.0	94.0	91.0	88.0	85.0	82.0	79.0	77.0	74.0	72.0	71.0	69.0	67.0	66.0	64.0	63.0	63.0	63.0	64.0	65.0	66.0	67.0	67.0	67.0	66.0	65.0	63.0	62.0	62.0	65.0	73.0	85.0	100.0	116.0	128.0	138.0	143.0	144.0	144.0	141.0	138.0	135.0	131.0	128.0	126.0	123.0	121.0	118.0	116.0	115.0	114.0	114.0	115.0	115.0	116.0	116.0	115.0	114.0	112.0	110.0	108.0	105.0	102.0	99.0	96.0	93.0	90.0	87.0	84.0	82.0	79.0	77.0	76.0	74.0	73.0	72.0	71.0	71.0	70.0	69.0	69.0	69.0	68.0	67.0	66.0	66.0	65.0	64.0	65.0	67.0	73.0	84.0	98.0	114.0	128.0	141.0	150.0	154.0	155.0	153.0	150.0	147.0	143.0	139.0	135.0	132.0	128.0	126.0	124.0	122.0	122.0	122.0	123.0	124.0	125.0	125.0	124.0	122.0	120.0	117.0	114.0	110.0	107.0	104.0	100.0	97.0	94.0	91.0	88.0	85.0	83.0	81.0	78.0	76.0	74.0	73.0	71.0	70.0	69.0	68.0	67.0	66.0	65.0	63.0	62.0	61.0	60.0	59.0	61.0	64.0	72.0	83.0	98.0	113.0	126.0	135.0	141.0	142.0	141.0	139.0	135.0	131.0	127.0	123.0	119.0	115.0	111.0	109.0	107.0	107.0	107.0	108.0	110.0	111.0	112.0	112.0	112.0	110.0	108.0	106.0	103.0	100.0	97.0	94.0	91.0	88.0	85.0	82.0	80.0	78.0	76.0	74.0	73.0	71.0	70.0	69.0	69.0	70.0	74.0	81.0	91.0	105.0	118.0	130.0	139.0	144.0	146.0	145.0	142.0	137.0	133.0	128.0	124.0	119.0	115.0	110.0	106.0	103.0	102.0	101.0	101.0	102.0	104.0	104.0	105.0	104.0	102.0	99.0	95.0	91.0	87.0	84.0	80.0	77.0	74.0	72.0	69.0	67.0	65.0	64.0	63.0	61.0	60.0	60.0	59.0	58.0	58.0	59.0	61.0	66.0	75.0	88.0	103.0	120.0	133.0	143.0	149.0	151.0	150.0	147.0	144.0	140.0	137.0	133.0	130.0	127.0	125.0	122.0	120.0	117.0	116.0	115.0	115.0	115.0	115.0	114.0	113.0	111.0	109.0	105.0	102.0	98.0	94.0	91.0	87.0	84.0	81.0	78.0	76.0	73.0	71.0	69.0	67.0	65.0	63.0	62.0	61.0	60.0	59.0	58.0	57.0	56.0	56.0	55.0	54.0	53.0	53.0	55.0	61.0	70.0	85.0	103.0	122.0	138.0	150.0	158.0	160.0	160.0	157.0	154.0	150.0	147.0	145.0	143.0	141.0	138.0	135.0	132.0	129.0	127.0	126.0	125.0	124.0	123.0	121.0	120.0	118.0	115.0	112.0	109.0	105.0	101.0	97.0	93.0	89.0	85.0	81.0	77.0	74.0	72.0	70.0	68.0	66.0	65.0	64.0	63.0	63.0	63.0	63.0	63.0	62.0	62.0	61.0	59.0	58.0	59.0	61.0	68.0	79.0	95.0	112.0	128.0	142.0	151.0	156.0	157.0	156.0	153.0	149.0	146.0	143.0	140.0	138.0	135.0	132.0	129.0	127.0	125.0	123.0	121.0	120.0	120.0	119.0	118.0	116.0	114.0	111.0	107.0	104.0	100.0	96.0	92.0	88.0	84.0	81.0	77.0	74.0	71.0	69.0	66.0	65.0	63.0	62.0	61.0	60.0	59.0	59.0	59.0	59.0	59.0	59.0	60.0	61.0	61.0	62.0	63.0	64.0	64.0	66.0	69.0	77.0	89.0	106.0	126.0	144.0	160.0	171.0	176.0	177.0	176.0	172.0	168.0	164.0	160.0	156.0	152.0	148.0	143.0	139.0	134.0	130.0	127.0	125.0	123.0	122.0	121.0	119.0	117.0	115.0	112.0	108.0	105.0	101.0	96.0	92.0	87.0	83.0	79.0	74.0	70.0	67.0	64.0	61.0	58.0	56.0	55.0	53.0	52.0	51.0	50.0	50.0	49.0	49.0	49.0	48.0	48.0	47.0	47.0	46.0	45.0	44.0	45.0	48.0	55.0	66.0	82.0	100.0	118.0	133.0	143.0	149.0	151.0	149.0	146.0	142.0	137.0	133.0	130.0	127.0	126.0	123.0	121.0	119.0	118.0	117.0	118.0	118.0	119.0	119.0	118.0	117.0	115.0	113.0	110.0	107.0	103.0	99.0	95.0	91.0	88.0	84.0	81.0	77.0	75.0	72.0	70.0	68.0	67.0	66.0	65.0	65.0	65.0	65.0	64.0	64.0	64.0	64.0	64.0	65.0	65.0	65.0	65.0	64.0	64.0	64.0	65.0	70.0	79.0	92.0	109.0	126.0	141.0	152.0	159.0	161.0	159.0	155.0	150.0	145.0	141.0	136.0	132.0	128.0	126.0	123.0	120.0	119.0	118.0	118.0	119.0	119.0	120.0	119.0	118.0	116.0	114.0	110.0	106.0	102.0	98.0	93.0	89.0	85.0	81.0	77.0	74.0	71.0	69.0	67.0	66.0	64.0	63.0	62.0	62.0	61.0	60.0	60.0	59.0	58.0	57.0	56.0	54.0	53.0	52.0	52.0	54.0	60.0	70.0	84.0	100.0	115.0	127.0	136.0	141.0	143.0	142.0	141.0	138.0	135.0	131.0	128.0	125.0	122.0	120.0	118.0	117.0	118.0	119.0	121.0	123.0	124.0	124.0	123.0	120.0	116.0	112.0	107.0	103.0	98.0	93.0	89.0	85.0	81.0	77.0	74.0	71.0	68.0	65.0	63.0	61.0	59.0	58.0	57.0	56.0	55.0	55.0	55.0	56.0	59.0	66.0	76.0	90.0	106.0	122.0	135.0	144.0	148.0	149.0	146.0	141.0	136.0	131.0	127.0	122.0	117.0	113.0	109.0	105.0	102.0	99.0	97.0	96.0	97.0	98.0	99.0	101.0	102.0	103.0	103.0	103.0	101.0	100.0	97.0	95.0	92.0	89.0	86.0	84.0	81.0	78.0	76.0	74.0	73.0	71.0	70.0	69.0	68.0	67.0	66.0	66.0	65.0	65.0	64.0	64.0	63.0	62.0	61.0	61.0	62.0	65.0	72.0	83.0	98.0	114.0	127.0	138.0	145.0	147.0	146.0	143.0	138.0	134.0	129.0	126.0	123.0	119.0	116.0	114.0	112.0	110.0	110.0	111.0	113.0	114.0	116.0	117.0	118.0	117.0	116.0	114.0	112.0	109.0	106.0	103.0	100.0	97.0	95.0	93.0	91.0	90.0	88.0	86.0	85.0	83.0	82.0	82.0	81.0	80.0	80.0	80.0	82.0	86.0	93.0	102.0	112.0	122.0	129.0	133.0	134.0	133.0	129.0	126.0	122.0	118.0	115.0	113.0	111.0	110.0	108.0	107.0	105.0	104.0	104.0	105.0	106.0	106.0	106.0	106.0	105.0	103.0	101.0	98.0	96.0	93.0	90.0	87.0	84.0	81.0	79.0	77.0	76.0	75.0	74.0	74.0	74.0	74.0	74.0	74.0	74.0	74.0	73.0	72.0	71.0	70.0	69.0	67.0	65.0	63.0	61.0	60.0	60.0	59.0	60.0	61.0	63.0	69.0	79.0	92.0	108.0	123.0	135.0	144.0	147.0	147.0	145.0	141.0	136.0	132.0	128.0	125.0	123.0	120.0	119.0	117.0	116.0	114.0	114.0	113.0	112.0	110.0	108.0	106.0	102.0	99.0	95.0	91.0	88.0	85.0	83.0	80.0	78.0	77.0	75.0	74.0	74.0	74.0	75.0	76.0	76.0	77.0	77.0	77.0	76.0	75.0	74.0	73.0	72.0	71.0	71.0	70.0	69.0	69.0	69.0	71.0	74.0	81.0	90.0	100.0	112.0	122.0	128.0	132.0	132.0	130.0	127.0	123.0	119.0	115.0	110.0	106.0	102.0	98.0	95.0	92.0	91.0	90.0	91.0	92.0	94.0	96.0	99.0	101.0	103.0	104.0	104.0	104.0	104.0	104.0	104.0	104.0	104.0	104.0	103.0	101.0	100.0	97.0	95.0	93.0	90.0	88.0	86.0	85.0	84.0	85.0	89.0	96.0	106.0	116.0	126.0	131.0	134.0	133.0	130.0	126.0	122.0	117.0	114.0	111.0	109.0	107.0	105.0	104.0	103.0	102.0	102.0	103.0	104.0	105.0	106.0	106.0	106.0	106.0	106.0	104.0	103.0	101.0	99.0	97.0	96.0	94.0	92.0	91.0	89.0	87.0	84.0	82.0	80.0	78.0	76.0	75.0	75.0	74.0	75.0	77.0	81.0	88.0	97.0	107.0	116.0	122.0	125.0	124.0	122.0	118.0	114.0	110.0	107.0	104.0	102.0	100.0	99.0	97.0	96.0	95.0	94.0	94.0	95.0	96.0	97.0	98.0	100.0	101.0	102.0	102.0	101.0	100.0	98.0	96.0	95.0	93.0	91.0	89.0	87.0	86.0	85.0	84.0	83.0	82.0	82.0	82.0	82.0	82.0	82.0	82.0	82.0	82.0	82.0	82.0	81.0	81.0	80.0	81.0	83.0	87.0	94.0	104.0	113.0	122.0	127.0	127.0	126.0	122.0	116.0	111.0	106.0	102.0	98.0	95.0	93.0	91.0	89.0	87.0	86.0	86.0	86.0	87.0	89.0	90.0	91.0	92.0	92.0	91.0	90.0	89.0	88.0	87.0	86.0	86.0	85.0	85.0	85.0	84.0	84.0	84.0	85.0	85.0	86.0	87.0	89.0	91.0	95.0	100.0	108.0	117.0	127.0	136.0	143.0	147.0	149.0	149.0	146.0	142.0	137.0	132.0	127.0	122.0	117.0	112.0	108.0	105.0	103.0	104.0	105.0	108.0	111.0	114.0	116.0	118.0	119.0	120.0	120.0	120.0	119.0	118.0	118.0	117.0	116.0	114.0	112.0	109.0	105.0	101.0	97.0	93.0	90.0	88.0	87.0	88.0	92.0	97.0	104.0	111.0	118.0	123.0	125.0	126.0	124.0	122.0	120.0	118.0	117.0	116.0	116.0	116.0	117.0	117.0	117.0	117.0	117.0	117.0	118.0	119.0	120.0	120.0	121.0	120.0	119.0	117.0	115.0	112.0	110.0	107.0	105.0	102.0	100.0	97.0	95.0	92.0	90.0	88.0	86.0	84.0	83.0	83.0	84.0	87.0	91.0	98.0	106.0	113.0	118.0	120.0	120.0	117.0	114.0	110.0	106.0	103.0	99.0	95.0	92.0	88.0	85.0	82.0	79.0	76.0	74.0	72.0	71.0	69.0	69.0	68.0	68.0	68.0	69.0	70.0	70.0	71.0	71.0	71.0	71.0	71.0	70.0	70.0	70.0	70.0	69.0	69.0	68.0	68.0	68.0	69.0	70.0	71.0	71.0	72.0	73.0	74.0	76.0	77.0	80.0	85.0	92.0	103.0	115.0	127.0	136.0	141.0	142.0	140.0	136.0	131.0	127.0	123.0	120.0	118.0	116.0	113.0	110.0	107.0	104.0	102.0	101.0	102.0	103.0	104.0	105.0	106.0	106.0	105.0	104.0	102.0	100.0	98.0	96.0	93.0	92.0	91.0	90.0	90.0	91.0	91.0	91.0	91.0	92.0	92.0	93.0	94.0	95.0	97.0	99.0	100.0	102.0	103.0	104.0	105.0	106.0	108.0	112.0	119.0	127.0	135.0	141.0	145.0	146.0	143.0	139.0	134.0	129.0	126.0	122.0	120.0	118.0	116.0	115.0	113.0	111.0	108.0	106.0	105.0	103.0	102.0	102.0	101.0	100.0	99.0	98.0	97.0	95.0	94.0	92.0	90.0	89.0	88.0	86.0	85.0	85.0	84.0	83.0	83.0	83.0	82.0	82.0	82.0	82.0	82.0	82.0	82.0	83.0	83.0	83.0	83.0	83.0	84.0	84.0	84.0	85.0	86.0	89.0	94.0	102.0	110.0	117.0	122.0	123.0	121.0	118.0	113.0	109.0	106.0	103.0	100.0	98.0	97.0	96.0	95.0	94.0	93.0	93.0	94.0	94.0	95.0	96.0	96.0	97.0	96.0	96.0	95.0	94.0	93.0	92.0	91.0	90.0	89.0	89.0	88.0	88.0	87.0	87.0	87.0	87.0	88.0	88.0	88.0	88.0	89.0	89.0	90.0	91.0	94.0	99.0	105.0	112.0	117.0	121.0	122.0	120.0	116.0	113.0	109.0	105.0	103.0	100.0	99.0	97.0	96.0	95.0	94.0	94.0	94.0	95.0	95.0	96.0	97.0	98.0	98.0	98.0	97.0	96.0	95.0	95.0	94.0	93.0	92.0	92.0	91.0	91.0	91.0	91.0	91.0	91.0	91.0	91.0	91.0	91.0	91.0	91.0	91.0	91.0	91.0	91.0	91.0	91.0	91.0	91.0	92.0	95.0	100.0	106.0	113.0	119.0	122.0	123.0	122.0	118.0	114.0	110.0	107.0	104.0	102.0	100.0	99.0	98.0	97.0	97.0	96.0	96.0	96.0	96.0	97.0	98.0	98.0	99.0	99.0	99.0	98.0	98.0	97.0	96.0	96.0	95.0	95.0	94.0	94.0	94.0	93.0	93.0	93.0	93.0	93.0	100.0	100.0	100.0	100.0	99.0	99.0	98.0	97.0	97.0	96.0	96.0	96.0	95.0	95.0	95.0	95.0	94.0	94.0	95.0	95.0	95.0	95.0	95.0	95.0	95.0	94.0	94.0	94.0	94.0	94.0	94.0	94.0	95.0	96.0	98.0	103.0	109.0	116.0	123.0	127.0	127.0	126.0	122.0	118.0	114.0	111.0	108.0	106.0	104.0	103.0	102.0	102.0	101.0	100.0	100.0	100.0	100.0	100.0	101.0	101.0	101.0	101.0	101.0	101.0	100.0	100.0	99.0	98.0	98.0	97.0	96.0	96.0	96.0	95.0	95.0	95.0	95.0	95.0	94.0	94.0	94.0	94.0	94.0	94.0	94.0	94.0	94.0	94.0	94.0	94.0	94.0	96.0	98.0	103.0	109.0	115.0	120.0	124.0	124.0	123.0	120.0	116.0	113.0	110.0	107.0	105.0	103.0	101.0	100.0	100.0	99.0	99.0	99.0	99.0	100.0	100.0	101.0	102.0	102.0	102.0	103.0	103.0	102.0	102.0	102.0	101.0	101.0	100.0	100.0	99.0	99.0	98.0	98.0	98.0	97.0	97.0	97.0	97.0	97.0	96.0	97.0	97.0	97.0	97.0	97.0	98.0	98.0	98.0	98.0	98.0	97.0	98.0	99.0	101.0	105.0	110.0	116.0	121.0	123.0	123.0	120.0	117.0	113.0	109.0	106.0	103.0	101.0	99.0	98.0	97.0	96.0	96.0	96.0	97.0	98.0	99.0	100.0	101.0	102.0	103.0	103.0	103.0	103.0	102.0	102.0	101.0	101.0	100.0	100.0	99.0	98.0	98.0	97.0	97.0	96.0	95.0	95.0	94.0	93.0	93.0	92.0	92.0	91.0	91.0	91.0	90.0	90.0	90.0	90.0	91.0	93.0	97.0	102.0	108.0	114.0	119.0	122.0	123.0	122.0	119.0	117.0	114.0	111.0	108.0	106.0	104.0	102.0	101.0	99.0	98.0	98.0	97.0	97.0	98.0	98.0	99.0	99.0	99.0	99.0	99.0	98.0	97.0	96.0	96.0	96.0	95.0	95.0	95.0	94.0	94.0	94.0	94.0	94.0	93.0	93.0	93.0	93.0	93.0	93.0	94.0	95.0	97.0	101.0	106.0	111.0	116.0	119.0	120.0	120.0	118.0	115.0	112.0	110.0	108.0	106.0	105.0	103.0	102.0	102.0	101.0	100.0	100.0	100.0	100.0	101.0	101.0	102.0	102.0	102.0	101.0	101.0	100.0	99.0	98.0	98.0	97.0	97.0	96.0	96.0	96.0	95.0	95.0	95.0	95.0	95.0	94.0	94.0	94.0	94.0	94.0	94.0	93.0	93.0	93.0	93.0	93.0	93.0	93.0	93.0	93.0	94.0	94.0	97.0	100.0	106.0	113.0	119.0	124.0	127.0	127.0	125.0	123.0	120.0	117.0	114.0	112.0	111.0	109.0	108.0	107.0	106.0	106.0	105.0	105.0	104.0	104.0	104.0	104.0	105.0	104.0	104.0	104.0	103.0	103.0	102.0	101.0	101.0	100.0	99.0	99.0	98.0	97.0	97.0	96.0	95.0	95.0	94.0	94.0	94.0	93.0	93.0	93.0	93.0	92.0	92.0	92.0	92.0	91.0	91.0	91.0	91.0	92.0	93.0	96.0	100.0	106.0	113.0	119.0	123.0	125.0	125.0	123.0	120.0	117.0	115.0	113.0	111.0	110.0	109.0	108.0	107.0	107.0	106.0	105.0	105.0	105.0	105.0	105.0	106.0	106.0	105.0	105.0	105.0	104.0	103.0	102.0	101.0	100.0	99.0	98.0	97.0	96.0	95.0	95.0	94.0	93.0	93.0	92.0	92.0	91.0	91.0	91.0	90.0	90.0	90.0	90.0	90.0	90.0	90.0	90.0	90.0	90.0	90.0	90.0	89.0	89.0	90.0	91.0	94.0	99.0	105.0	112.0	119.0	123.0	125.0	124.0	122.0	120.0	117.0	115.0	113.0	111.0	110.0	109.0	108.0	107.0	107.0	106.0	106.0	106.0	106.0	106.0	107.0	107.0	106.0	106.0	105.0	105.0	104.0	103.0	102.0	101.0	99.0	98.0	97.0	96.0	95.0	94.0	93.0	93.0	92.0	92.0	91.0	91.0	91.0	91.0	91.0	90.0	90.0	90.0	90.0	89.0	89.0	89.0	89.0	89.0	89.0	90.0	90.0	90.0	90.0	90.0	90.0	91.0	93.0	98.0	104.0	111.0	118.0	124.0	127.0	127.0	127.0	124.0	121.0	119.0	116.0	114.0	111.0	110.0	108.0	107.0	106.0	105.0	105.0	105.0	106.0	107.0	108.0	108.0	108.0	108.0	107.0	106.0	105.0	103.0	102.0	101.0	100.0	99.0	98.0	97.0	96.0	95.0	94.0	93.0	93.0	92.0	92.0	91.0	91.0	91.0	90.0	90.0	90.0	90.0	89.0	89.0	89.0	89.0	88.0	88.0	88.0	87.0	87.0	86.0	86.0	87.0	89.0	93.0	99.0	105.0	111.0	116.0	118.0	118.0	116.0	113.0	110.0	107.0	105.0	102.0	100.0	98.0	96.0	95.0	94.0	93.0	93.0	93.0	94.0	95.0	95.0	96.0	96.0	96.0	96.0	95.0	95.0	94.0	92.0	91.0	90.0	90.0	89.0	89.0	89.0	89.0	89.0	88.0	88.0	88.0	88.0	88.0	88.0	88.0	87.0	87.0	87.0	87.0	87.0	87.0	87.0	87.0	87.0	87.0	87.0	88.0	88.0	88.0	88.0	89.0	92.0	96.0	102.0	108.0	114.0	119.0	121.0	121.0	120.0	118.0	116.0	113.0	111.0	110.0	108.0	107.0	106.0	105.0	105.0	104.0	103.0	103.0	103.0	103.0	103.0	103.0	103.0	103.0	102.0	102.0	101.0	100.0	99.0	98.0	97.0	96.0	95.0	94.0	94.0	93.0	93.0	92.0	92.0	92.0	91.0	91.0	90.0	90.0	90.0	89.0	89.0	89.0	89.0	89.0	88.0	88.0	88.0	88.0	88.0	87.0	87.0	87.0	88.0	88.0	89.0	91.0	95.0	100.0	107.0	114.0	119.0	123.0	125.0	124.0	123.0	120.0	118.0	116.0	114.0	112.0	111.0	110.0	109.0	108.0	107.0	107.0	106.0	106.0	105.0	105.0	105.0	105.0	105.0	105.0	105.0	104.0	103.0	102.0	102.0	100.0	99.0	98.0	97.0	95.0	94.0	93.0	92.0	91.0	90.0	90.0	89.0	89.0	89.0	88.0	88.0	87.0	87.0	87.0	87.0	86.0	86.0	86.0	86.0	86.0	86.0	86.0	86.0	86.0	86.0	87.0	87.0	89.0	92.0	96.0	102.0	109.0	116.0	120.0	123.0	123.0	122.0	121.0	119.0	117.0	116.0	115.0	115.0	115.0	115.0	115.0	115.0	114.0	114.0	113.0	113.0	112.0	111.0	110.0	109.0	108.0	106.0	104.0	102.0	101.0	99.0	98.0	96.0	95.0	94.0	94.0	93.0	93.0	92.0	92.0	92.0	92.0	92.0	92.0	92.0	91.0	91.0	91.0	91.0	91.0	90.0	90.0	90.0	90.0	89.0	89.0	88.0	87.0	87.0	87.0	88.0	91.0	95.0	101.0	108.0	114.0	118.0	120.0	120.0	119.0	117.0	115.0	113.0	111.0	110.0	108.0	106.0	105.0	103.0	102.0	101.0	100.0	100.0	99.0	99.0	99.0	98.0	98.0	98.0	97.0	96.0	96.0	95.0	94.0	93.0	92.0	92.0	91.0	91.0	91.0	91.0	90.0	90.0	90.0	90.0	90.0	90.0	90.0	90.0	90.0	90.0	90.0	90.0	90.0	90.0	90.0	89.0	89.0	88.0	88.0	88.0	88.0	90.0	93.0	98.0	105.0	112.0	118.0	123.0	126.0	126.0	125.0	123.0	121.0	119.0	117.0	114.0	113.0	111.0	109.0	108.0	107.0	107.0	106.0	106.0	107.0	107.0	108.0	108.0	108.0	108.0	107.0	106.0	105.0	104.0	102.0	101.0	100.0	99.0	98.0	97.0	96.0	95.0	94.0	93.0	92.0	91.0	91.0	90.0	90.0	90.0	89.0	89.0	89.0	88.0	88.0	87.0	87.0	87.0	87.0	88.0	90.0	94.0	100.0	106.0	113.0	118.0	122.0	123.0	123.0	121.0	118.0	115.0	112.0	110.0	107.0	105.0	103.0	101.0	99.0	98.0	98.0	97.0	97.0	98.0	98.0	98.0	98.0	98.0	97.0	97.0	96.0	95.0	94.0	93.0	92.0	90.0	89.0	87.0	86.0	85.0	85.0	84.0	84.0	84.0	84.0	84.0	84.0	84.0	84.0	84.0	84.0	83.0	84.0	84.0	84.0	86.0	88.0	92.0	97.0	103.0	109.0	114.0	118.0	119.0	119.0	118.0	116.0	115.0	113.0	112.0	111.0	109.0	108.0	107.0	106.0	105.0	104.0	103.0	102.0	102.0	101.0	101.0	101.0	101.0	100.0	99.0	99.0	98.0	97.0	96.0	95.0	94.0	94.0	93.0	92.0	91.0	91.0	90.0	89.0	89.0	88.0	88.0	88.0	87.0	87.0	87.0	87.0	87.0	86.0	86.0	86.0	86.0	87.0	86.0	86.0	86.0	86.0	86.0	86.0	87.0	90.0	94.0	101.0	108.0	116.0	122.0	127.0	128.0	128.0	127.0	126.0	124.0	122.0	121.0	120.0	119.0	118.0	116.0	115.0	115.0	114.0	113.0	112.0	112.0	111.0	111.0	110.0	110.0	109.0	108.0	107.0	105.0	104.0	102.0	101.0	99.0	98.0	96.0	95.0	93.0	92.0	91.0	90.0	89.0	88.0	88.0	88.0	87.0	87.0	87.0	87.0	87.0	87.0	87.0	87.0	86.0	86.0	86.0	85.0	85.0	85.0	86.0	88.0	91.0	97.0	104.0	111.0	118.0	124.0	127.0	127.0	127.0	125.0	123.0	121.0	119.0	117.0	115.0	114.0	112.0	111.0	110.0	109.0	109.0	108.0	108.0	108.0	108.0	108.0	108.0	108.0	108.0	107.0	106.0	105.0	104.0	102.0	101.0	100.0	99.0	98.0	97.0	95.0	94.0	93.0	93.0	92.0	91.0	91.0	90.0	90.0	90.0	90.0	89.0	89.0	88.0	88.0	87.0	86.0	86.0	85.0	85.0	85.0	85.0	87.0	89.0	94.0	100.0	107.0	114.0	120.0	124.0	126.0	126.0	124.0	122.0	120.0	118.0	116.0	114.0	112.0	110.0	109.0	108.0	107.0	106.0	106.0	106.0	106.0	106.0	106.0	105.0	104.0	103.0	102.0	101.0	100.0	98.0	97.0	96.0	95.0	93.0	92.0	91.0	90.0	89.0	89.0	88.0	87.0	87.0	86.0	86.0	85.0	84.0	83.0	83.0	82.0	82.0	82.0	84.0	87.0	91.0	98.0	105.0	111.0	117.0	120.0	122.0	122.0	121.0	119.0	117.0	115.0	113.0	112.0	110.0	109.0	107.0	106.0	105.0	104.0	104.0	103.0	103.0	103.0	103.0	102.0	102.0	101.0	100.0	98.0	97.0	95.0	94.0	92.0	91.0	89.0	87.0	86.0	84.0	83.0	82.0	81.0	81.0	80.0	80.0	79.0	79.0	78.0	78.0	77.0	76.0	75.0	75.0	76.0	78.0	82.0	88.0	95.0	103.0	110.0	115.0	119.0	120.0	120.0	118.0	117.0	115.0	114.0	113.0	111.0	110.0	109.0	108.0	107.0	106.0	105.0	105.0	104.0	104.0	104.0	103.0	103.0	102.0	101.0	100.0	99.0	98.0	97.0	96.0	95.0	94.0	92.0	91.0	90.0	89.0	88.0	87.0	86.0	85.0	85.0	84.0	84.0	83.0	83.0	83.0	83.0	82.0	82.0	82.0	81.0	81.0	81.0	82.0	83.0	87.0	94.0	103.0	113.0	122.0	129.0	133.0	135.0	135.0	133.0	131.0	129.0	128.0	127.0	127.0	126.0	125.0	124.0	123.0	121.0	120.0	119.0	118.0	117.0	117.0	116.0	116.0	115.0	115.0	114.0	113.0	111.0	110.0	108.0	106.0	104.0	101.0	99.0	97.0	95.0	93.0	91.0	89.0	87.0	86.0	84.0	83.0	81.0	80.0	79.0	78.0	77.0	76.0	75.0	74.0	74.0	75.0	78.0	83.0	92.0	102.0	112.0	121.0	126.0	128.0	129.0	128.0	127.0	125.0	123.0	121.0	120.0	118.0	117.0	116.0	114.0	113.0	112.0	110.0	109.0	109.0	108.0	108.0	107.0	106.0	106.0	104.0	103.0	101.0	100.0	98.0	96.0	94.0	92.0	90.0	88.0	86.0	85.0	83.0	82.0	81.0	80.0	79.0	78.0	78.0	77.0	77.0	76.0	76.0	75.0	75.0	74.0	73.0	72.0	72.0	73.0	77.0	84.0	93.0	103.0	112.0	119.0	123.0	124.0	123.0	121.0	119.0	117.0	115.0	113.0	112.0	110.0	109.0	107.0	105.0	103.0	102.0	101.0	101.0	100.0	100.0	99.0	99.0	98.0	97.0	96.0	95.0	94.0	93.0	91.0	90.0	88.0	86.0	85.0	83.0	82.0	81.0	80.0	79.0	78.0	78.0	77.0	77.0	76.0	76.0	76.0	75.0	75.0	74.0	74.0	73.0	73.0	72.0	72.0	72.0	72.0	75.0	79.0	87.0	96.0	105.0	113.0	119.0	122.0	122.0	120.0	118.0	116.0	113.0	112.0	110.0	109.0	108.0	107.0	107.0	106.0	106.0	106.0	106.0	106.0	106.0	106.0	105.0	105.0	104.0	103.0	102.0	100.0	99.0	97.0	95.0	93.0	92.0	90.0	88.0	87.0	85.0	84.0	83.0	82.0	82.0	81.0	81.0	80.0	80.0	80.0	80.0	80.0	80.0	80.0	79.0	79.0	79.0	78.0	78.0	78.0	78.0	80.0	84.0	90.0	98.0	106.0	114.0	119.0	121.0	121.0	119.0	117.0	114.0	112.0	110.0	108.0	107.0	106.0	105.0	104.0	104.0	104.0	104.0	104.0	104.0	104.0	105.0	105.0	104.0	104.0	103.0	102.0	101.0	100.0	99.0	97.0	96.0	94.0	93.0	91.0	90.0	89.0	87.0	86.0	86.0	85.0	84.0	84.0	84.0	84.0	83.0	83.0	84.0	84.0	84.0	84.0	84.0	84.0	84.0	84.0	84.0	84.0	84.0	85.0	89.0	94.0	101.0	109.0	116.0	122.0	124.0	124.0	123.0	120.0	117.0	114.0	111.0	109.0	108.0	106.0	105.0	104.0	104.0	104.0	104.0	104.0	104.0	105.0	105.0	106.0	105.0	105.0	104.0	103.0	102.0	101.0	99.0	98.0	97.0	95.0	94.0	93.0	92.0	91.0	90.0	90.0	89.0	89.0	89.0	89.0	89.0	89.0	89.0	89.0	89.0	89.0	89.0	89.0	89.0	88.0	88.0	88.0	87.0	87.0	88.0	91.0	95.0	101.0	109.0	115.0	120.0	123.0	123.0	122.0	119.0	116.0	113.0	111.0	108.0	106.0	104.0	103.0	102.0	102.0	101.0	102.0	102.0	102.0	103.0	104.0	104.0	105.0	105.0	105.0	104.0	103.0	102.0	101.0	100.0	98.0	97.0	96.0	95.0	94.0	93.0	92.0	92.0	91.0	91.0	90.0	90.0	90.0	90.0	90.0	90.0	90.0	90.0	90.0	90.0	90.0	89.0	89.0	90.0	91.0	94.0	98.0	104.0	111.0	117.0	121.0	123.0	122.0	120.0	117.0	114.0	112.0	109.0	107.0	105.0	103.0	102.0	101.0	101.0	101.0	101.0	102.0	102.0	103.0	103.0	104.0	104.0	104.0	104.0	103.0	102.0	101.0	100.0	99.0	98.0	97.0	96.0	95.0	94.0	93.0	92.0	92.0	91.0	91.0	91.0	91.0	91.0	91.0	91.0	91.0	92.0	92.0	92.0	92.0	92.0	92.0	92.0	93.0	95.0	99.0	105.0	111.0	118.0	124.0	127.0	127.0	127.0	124.0	122.0	119.0	116.0	114.0	112.0	110.0	109.0	107.0	106.0	106.0	105.0	106.0	107.0	107.0	108.0	108.0	108.0	107.0	106.0	105.0	104.0	103.0	102.0	100.0	99.0	98.0	97.0	96.0	95.0	95.0	94.0	93.0	93.0	92.0	92.0	92.0	91.0	91.0	91.0	90.0	90.0	91.0	93.0	97.0	102.0	108.0	114.0	118.0	120.0	120.0	118.0	116.0	113.0	110.0	107.0	104.0	102.0	100.0	98.0	97.0	96.0	95.0	95.0	95.0	96.0	96.0	97.0	97.0	97.0	97.0	96.0	96.0	95.0	94.0	94.0	93.0	92.0	92.0	91.0	90.0	89.0	89.0	88.0	88.0	88.0	89.0	89.0	89.0	89.0	89.0	89.0	89.0	89.0	89.0	88.0	88.0	88.0	88.0	88.0	89.0	90.0	93.0	98.0	104.0	111.0	118.0	122.0	124.0	124.0	122.0	120.0	117.0	115.0	112.0	111.0	109.0	108.0	107.0	106.0	105.0	105.0	105.0	105.0	105.0	105.0	105.0	106.0	106.0	106.0	105.0	105.0	104.0	103.0	102.0	101.0	100.0	99.0	98.0	97.0	96.0	94.0	94.0	93.0	92.0	92.0	91.0	91.0	90.0	90.0	90.0	90.0	92.0	95.0	101.0	107.0	114.0	119.0	122.0	123.0	122.0	120.0	118.0	115.0	113.0	111.0	110.0	108.0	107.0	106.0	105.0	105.0	105.0	105.0	105.0	105.0	105.0	105.0	104.0	104.0	104.0	103.0	102.0	101.0	100.0	99.0	98.0	97.0	96.0	95.0	94.0	93.0	93.0	92.0	91.0	90.0	90.0	89.0	89.0	88.0	87.0	87.0	86.0	86.0	86.0	85.0	85.0	85.0	85.0	85.0	85.0	85.0	85.0	86.0	88.0	92.0	98.0	106.0	114.0	121.0	125.0	127.0	126.0	125.0	122.0	120.0	118.0	116.0	114.0	113.0	111.0	110.0	109.0	108.0	108.0	108.0	108.0	109.0	109.0	110.0	110.0	111.0	111.0	111.0	110.0	109.0	108.0	107.0	106.0	105.0	104.0	103.0	102.0	101.0	100.0	99.0	98.0	97.0	96.0	95.0	94.0	92.0	92.0	91.0	91.0	92.0	96.0	100.0	107.0	113.0	119.0	123.0	124.0	123.0	121.0	119.0	116.0	114.0	111.0	109.0	107.0	105.0	103.0	102.0	101.0	100.0	100.0	100.0	100.0	101.0	101.0	101.0	101.0	100.0	100.0	99.0	98.0	97.0	96.0	95.0	94.0	94.0	93.0	93.0	92.0	92.0	91.0	91.0	90.0	89.0	87.0	86.0	85.0	83.0	82.0	82.0	82.0	82.0	82.0	82.0	82.0	83.0	83.0	83.0	84.0	86.0	89.0	94.0	101.0	109.0	116.0	121.0	124.0	124.0	123.0	121.0	119.0	117.0	116.0	115.0	114.0	113.0	112.0	111.0	110.0	110.0	110.0	111.0	111.0	111.0	111.0	112.0	112.0	112.0	111.0	110.0	109.0	108.0	106.0	104.0	102.0	100.0	98.0	96.0	95.0	93.0	92.0	91.0	90.0	88.0	87.0	86.0	87.0	89.0	94.0	101.0	108.0	115.0	120.0	122.0	122.0	120.0	118.0	115.0	111.0	108.0	104.0	101.0	98.0	95.0	93.0	91.0	90.0	89.0	89.0	89.0	90.0	91.0	91.0	92.0	93.0	93.0	93.0	93.0	92.0	91.0	90.0	89.0	88.0	86.0	84.0	82.0	80.0	78.0	77.0	75.0	74.0	74.0	73.0	73.0	73.0	73.0	73.0	73.0	74.0	74.0	74.0	74.0	75.0	77.0	81.0	88.0	97.0	106.0	115.0	122.0	125.0	126.0	126.0	124.0	123.0	121.0	120.0	120.0	119.0	118.0	117.0	116.0	115.0	113.0	112.0	112.0	111.0	111.0	110.0	110.0	110.0	109.0	108.0	107.0	106.0	105.0	103.0	102.0	100.0	99.0	97.0	95.0	94.0	92.0	91.0	90.0	88.0	87.0	85.0	84.0	82.0	81.0	81.0	82.0	86.0	93.0	101.0	109.0	116.0	120.0	122.0	121.0	120.0	117.0	115.0	113.0	111.0	109.0	107.0	105.0	104.0	102.0	102.0	101.0	101.0	101.0	102.0	102.0	103.0	103.0	103.0	103.0	102.0	101.0	100.0	98.0	97.0	95.0	93.0	92.0	90.0	88.0	87.0	85.0	84.0	83.0	82.0	80.0	80.0	79.0	78.0	78.0	77.0	78.0	79.0	82.0	87.0	95.0	103.0	110.0	116.0	119.0	120.0	119.0	118.0	116.0	114.0	112.0	111.0	110.0	109.0	108.0	107.0	106.0	106.0	106.0	106.0	107.0	107.0	108.0	107.0	107.0	106.0	104.0	103.0	101.0	99.0	97.0	96.0	94.0	93.0	91.0	90.0	89.0	87.0	86.0	85.0	84.0	83.0	83.0	84.0	86.0	91.0	97.0	103.0	109.0	113.0	114.0	113.0	110.0	108.0	105.0	103.0	101.0	100.0	99.0	98.0	97.0	96.0	95.0	94.0	94.0	94.0	94.0	94.0	94.0	94.0	94.0	94.0	93.0	93.0	92.0	91.0	90.0	89.0	88.0	87.0	86.0	85.0	84.0	84.0	83.0	82.0	82.0	82.0	82.0	83.0	86.0	91.0	98.0	106.0	113.0	118.0	121.0	121.0	119.0	117.0	114.0	111.0	109.0	107.0	105.0	103.0	100.0	98.0	96.0	94.0	93.0	93.0	93.0	93.0	94.0	94.0	94.0	94.0	93.0	93.0	92.0	91.0	91.0	90.0	89.0	88.0	87.0	87.0	86.0	85.0	85.0	84.0	84.0	83.0	83.0	83.0	83.0	83.0	83.0	83.0	83.0	84.0	84.0	84.0	84.0	84.0	84.0	84.0	86.0	91.0	97.0	104.0	111.0	116.0	118.0	118.0	116.0	113.0	109.0	107.0	104.0	103.0	101.0	100.0	99.0	98.0	97.0	96.0	96.0	96.0	96.0	97.0	98.0	98.0	99.0	99.0	99.0	99.0	98.0	98.0	97.0	97.0	96.0	95.0	95.0	94.0	93.0	92.0	92.0	91.0	91.0	90.0	90.0	89.0	89.0	89.0	89.0	89.0	89.0	89.0	89.0	89.0	89.0	89.0	90.0	94.0	99.0	106.0	113.0	119.0	123.0	124.0	123.0	121.0	118.0	115.0	112.0	110.0	108.0	107.0	105.0	104.0	103.0	102.0	102.0	102.0	102.0	103.0	103.0	103.0	103.0	102.0	101.0	100.0	99.0	98.0	97.0	96.0	95.0	94.0	93.0	92.0	91.0	90.0	89.0	88.0	86.0	85.0	85.0	84.0	83.0	83.0	83.0	82.0	82.0	82.0	82.0	82.0	82.0	83.0	83.0	85.0	87.0	92.0	97.0	104.0	109.0	113.0	114.0	114.0	112.0	110.0	107.0	105.0	103.0	102.0	101.0	100.0	99.0	99.0	99.0	99.0	99.0	100.0	101.0	102.0	103.0	103.0	103.0	103.0	102.0	102.0	101.0	101.0	100.0	99.0	99.0	98.0	98.0	97.0	96.0	96.0	95.0	95.0	95.0	95.0	95.0	94.0	94.0	94.0	94.0	94.0	94.0	94.0	94.0	94.0	93.0	93.0	93.0	93.0	95.0	98.0	104.0	110.0	116.0	120.0	123.0	122.0	120.0	118.0	114.0	111.0	109.0	107.0	105.0	104.0	102.0	101.0	100.0	100.0	100.0	100.0	100.0	101.0	102.0	102.0	103.0	103.0	103.0	102.0	102.0	101.0	100.0	99.0	98.0	97.0	96.0	95.0	94.0	94.0	93.0	93.0	93.0	92.0	92.0	92.0	92.0	92.0	92.0	92.0	92.0	92.0	92.0	92.0	92.0	92.0	91.0	91.0	91.0	91.0	92.0	94.0	99.0	104.0	110.0	116.0	119.0	120.0	119.0	117.0	114.0	111.0	109.0	107.0	106.0	105.0	104.0	103.0	103.0	103.0	103.0	103.0	104.0	105.0	107.0	108.0	109.0	109.0	109.0	109.0	109.0	108.0	106.0	105.0	104.0	102.0	100.0	99.0	97.0	96.0	95.0	94.0	93.0	93.0	93.0	93.0	93.0	94.0	94.0	94.0	95.0	95.0	95.0	95.0	95.0	94.0	94.0	93.0	93.0	92.0	93.0	94.0	97.0	102.0	108.0	113.0	118.0	121.0	121.0	119.0	116.0	113.0	110.0	108.0	105.0	103.0	102.0	101.0	101.0	100.0	100.0	101.0	102.0	103.0	104.0	106.0	107.0	108.0	108.0	107.0	107.0	106.0	104.0	103.0	102.0	101.0	100.0	99.0	98.0	98.0	97.0	97.0	96.0	96.0	96.0	96.0	95.0	95.0	95.0	95.0	95.0	95.0	95.0	95.0	94.0	94.0	94.0	93.0	93.0	93.0	94.0	96.0	99.0	104.0	110.0	115.0	118.0	120.0	120.0	118.0	115.0	112.0	109.0	107.0	105.0	103.0	101.0	100.0	99.0	98.0	98.0	99.0	99.0	100.0	101.0	101.0	102.0	102.0	101.0	101.0	100.0	100.0	99.0	98.0	97.0	97.0	96.0	95.0	94.0	93.0	93.0	92.0	92.0	91.0	91.0	90.0	90.0	89.0	88.0	88.0	88.0	89.0	91.0	94.0	99.0	103.0	107.0	110.0	110.0	110.0	108.0	106.0	104.0	102.0	100.0	99.0	99.0	98.0	98.0	98.0	98.0	98.0	99.0	99.0	99.0	100.0	100.0	100.0	95.0	98.0	102.0	108.0	114.0	119.0	123.0	124.0	123.0	121.0	118.0	115.0	113.0	111.0	110.0	109.0	108.0	107.0	106.0	105.0	105.0	104.0	104.0	105.0	105.0	105.0	105.0	105.0	105.0	105.0	105.0	104.0	104.0	103.0	102.0	102.0	101.0	101.0	100.0	100.0	100.0	99.0	100.0	100.0	100.0	100.0	100.0	100.0	100.0	100.0	102.0	105.0	110.0	115.0	120.0	124.0	125.0	124.0	122.0	120.0	117.0	115.0	113.0	111.0	109.0	108.0	107.0	107.0	106.0	106.0	106.0	107.0	108.0	108.0	109.0	110.0	110.0	110.0	110.0	109.0	108.0	107.0	105.0	104.0	102.0	100.0	99.0	97.0	96.0	94.0	93.0	92.0	91.0	91.0	90.0	90.0	89.0	89.0	89.0	89.0	88.0	88.0	88.0	88.0	88.0	88.0	88.0	87.0	87.0	87.0	87.0	89.0	93.0	100.0	107.0	114.0	120.0	123.0	124.0	122.0	120.0	118.0	115.0	113.0	111.0	110.0	109.0	108.0	108.0	107.0	107.0	107.0	107.0	108.0	109.0	109.0	109.0	109.0	109.0	108.0	107.0	105.0	104.0	102.0	101.0	99.0	97.0	96.0	94.0	93.0	92.0	91.0	90.0	90.0	90.0	90.0	90.0	90.0	90.0	90.0	90.0	90.0	91.0	91.0	90.0	90.0	90.0	91.0	92.0	95.0	100.0	107.0	113.0	119.0	123.0	124.0	124.0	121.0	119.0	116.0	113.0	110.0	107.0	104.0	102.0	100.0	98.0	97.0	97.0	96.0	97.0	97.0	97.0	97.0	97.0	97.0	97.0	97.0	96.0	95.0	94.0	94.0	93.0	92.0	91.0	90.0	90.0	89.0	89.0	89.0	89.0	89.0	89.0	89.0	89.0	89.0	90.0	90.0	90.0	90.0	90.0	91.0	93.0	97.0	102.0	107.0	112.0	116.0	117.0	116.0	114.0	112.0	110.0	108.0	106.0	104.0	103.0	102.0	101.0	101.0	101.0	101.0	102.0	103.0	104.0	104.0	105.0	104.0	103.0	102.0	101.0	99.0	97.0	95.0	94.0	93.0	92.0	91.0	90.0	90.0	89.0	89.0	88.0	88.0	87.0	87.0	87.0	86.0	86.0	86.0	86.0	86.0	86.0	86.0	85.0	85.0	84.0	84.0	84.0	84.0	85.0	88.0	93.0	100.0	107.0	113.0	117.0	119.0	118.0	116.0	114.0	112.0	110.0	109.0	108.0	107.0	106.0	106.0	105.0	104.0	104.0	103.0	103.0	103.0	104.0	104.0	104.0	103.0	102.0	101.0	100.0	99.0	98.0	97.0	95.0	94.0	93.0	92.0	91.0	90.0	90.0	90.0	89.0	89.0	88.0	88.0	88.0	87.0	87.0	87.0	86.0	86.0	86.0	85.0	85.0	85.0	85.0	85.0	86.0	88.0	92.0	98.0	106.0	113.0	119.0	122.0	123.0	122.0	121.0	119.0	117.0	115.0	113.0	112.0	111.0	110.0	109.0	108.0	107.0	107.0	106.0	106.0	106.0	107.0	107.0	107.0	106.0	106.0	105.0	104.0	103.0	102.0	101.0	99.0	98.0	96.0	95.0	94.0	92.0	91.0	90.0	89.0	88.0	88.0	88.0	87.0	87.0	87.0	87.0	87.0	87.0	87.0	86.0	86.0	86.0	86.0	86.0	85.0	85.0	84.0	84.0	83.0	84.0	87.0	91.0	98.0	106.0	113.0	119.0	122.0	123.0	122.0	120.0	118.0	115.0	114.0	112.0	111.0	110.0	110.0	109.0	109.0	108.0	108.0	109.0	109.0	110.0	110.0	110.0	110.0	110.0	109.0	108.0	107.0	106.0	105.0	104.0	103.0	101.0	100.0	98.0	97.0	96.0	94.0	93.0	92.0	92.0	91.0	90.0	90.0	89.0	88.0	88.0	87.0	87.0	86.0	86.0	86.0	85.0	85.0	85.0	85.0	85.0	85.0	85.0	85.0	85.0	86.0	89.0	94.0	100.0	107.0	113.0	117.0	118.0	118.0	116.0	114.0	112.0	109.0	107.0	105.0	104.0	102.0	101.0	100.0	100.0	100.0	101.0	102.0	103.0	104.0	104.0	104.0	103.0	103.0	101.0	100.0	98.0	97.0	95.0	93.0	91.0	89.0	88.0	86.0	85.0	84.0	83.0	83.0	83.0	84.0	84.0	84.0	84.0	85.0	85.0	84.0	84.0	84.0	83.0	83.0	82.0	82.0	82.0	82.0	84.0	86.0	89.0	94.0	101.0	108.0	114.0	118.0	119.0	118.0	116.0	114.0	111.0	109.0	108.0	106.0	105.0	104.0	102.0	101.0	101.0	101.0	101.0	101.0	102.0	103.0	103.0	104.0	104.0	104.0	104.0	103.0	102.0	101.0	99.0	97.0	95.0	93.0	92.0	91.0	90.0	89.0	89.0	89.0	89.0	89.0	89.0	88.0	88.0	88.0	88.0	88.0	89.0	89.0	89.0	90.0	90.0	89.0	89.0	88.0	88.0	87.0	88.0	91.0	96.0	102.0	109.0	114.0	118.0	119.0	118.0	116.0	114.0	111.0	110.0	108.0	107.0	106.0	105.0	105.0	104.0	104.0	103.0	103.0	103.0	102.0	103.0	103.0	103.0	102.0	102.0	102.0	101.0	100.0	99.0	98.0	96.0	95.0	94.0	93.0	93.0	92.0	92.0	92.0	91.0	91.0	91.0	91.0	91.0	91.0	91.0	91.0	91.0	91.0	91.0	90.0	90.0	90.0	89.0	89.0	89.0	89.0	90.0	93.0	97.0	102.0	109.0	114.0	118.0	120.0	120.0	119.0	116.0	114.0	111.0	109.0	107.0	106.0	105.0	104.0	104.0	103.0	102.0	102.0	101.0	101.0	101.0	101.0	102.0	102.0	102.0	103.0	103.0	104.0	104.0	104.0	104.0	103.0	103.0	102.0	101.0	100.0	99.0	99.0	98.0	97.0	96.0	96.0	95.0	94.0	94.0	93.0	93.0	93.0	92.0	92.0	92.0	92.0	92.0	91.0	91.0	91.0	91.0	91.0	92.0	93.0	96.0	101.0	107.0	114.0	119.0	123.0	125.0	124.0	121.0	118.0	115.0	112.0	109.0	106.0	104.0	101.0	99.0	98.0	97.0	96.0	96.0	96.0	96.0	97.0	97.0	98.0	98.0	98.0	98.0	98.0	98.0	98.0	98.0	98.0	98.0	98.0	98.0	98.0	97.0	97.0	97.0	96.0	96.0	96.0	96.0	95.0	95.0	94.0	94.0	93.0	93.0	93.0	93.0	93.0	94.0	97.0	100.0	105.0	110.0	114.0	116.0	117.0	116.0	115.0	113.0	111.0	109.0	108.0	106.0	105.0	104.0	103.0	102.0	102.0	101.0	101.0	101.0	101.0	101.0	101.0	101.0	101.0	101.0	100.0	100.0	99.0	98.0	97.0	96.0	95.0	94.0	93.0	92.0	91.0	90.0	89.0	88.0	88.0	87.0	87.0	86.0	86.0	85.0	85.0	84.0	85.0	85.0	87.0	89.0	93.0	98.0	103.0	108.0	111.0	113.0	113.0	113.0	111.0	110.0	108.0	107.0	105.0	104.0	103.0	103.0	102.0	101.0	101.0	101.0	101.0	101.0	101.0	100.0	100.0	100.0	99.0	99.0	98.0	98.0	97.0	97.0	96.0	96.0	95.0	95.0	95.0	94.0	94.0	94.0	93.0	93.0	93.0	92.0	92.0	92.0	92.0	92.0	93.0	95.0	98.0	102.0	108.0	113.0	117.0	120.0	120.0	119.0	118.0	116.0	114.0	112.0	111.0	109.0	108.0	107.0	106.0	105.0	104.0	104.0	104.0	103.0	103.0	103.0	103.0	103.0	103.0	103.0	103.0	102.0	102.0	102.0	102.0	102.0	102.0	102.0	101.0	101.0	100.0	99.0	98.0	97.0	95.0	94.0	93.0	92.0	91.0	90.0	90.0	90.0	90.0	90.0	91.0	92.0	92.0	93.0	93.0	93.0	94.0	95.0	98.0	103.0	110.0	117.0	123.0	127.0	128.0	127.0	125.0	121.0	118.0	115.0	113.0	111.0	110.0	109.0	108.0	106.0	105.0	103.0	102.0	101.0	100.0	100.0	100.0	100.0	100.0	101.0	101.0	102.0	103.0	103.0	102.0	101.0	100.0	98.0	95.0	93.0	91.0	89.0	88.0	87.0	86.0	86.0	85.0	85.0	85.0	85.0	86.0	87.0	88.0	89.0	90.0	90.0	90.0	91.0	92.0	94.0	99.0	105.0	112.0	118.0	123.0	126.0	125.0	124.0	121.0	119.0	117.0	115.0	113.0	111.0	110.0	109.0	107.0	106.0	105.0	104.0	103.0	102.0	102.0	101.0	100.0	99.0	98.0	97.0	96.0	95.0	94.0	94.0	94.0	94.0	94.0	94.0	93.0	93.0	93.0	92.0	92.0	91.0	90.0	90.0	89.0	89.0	88.0	88.0	88.0	87.0	87.0	87.0	87.0	87.0	87.0	87.0	88.0	89.0	91.0	94.0	99.0	105.0	111.0	115.0	118.0	119.0	118.0	116.0	114.0	111.0	109.0	107.0	105.0	103.0	101.0	100.0	99.0	99.0	99.0	100.0	100.0	101.0	101.0	102.0	102.0	102.0	101.0	101.0	100.0	99.0	98.0	97.0	96.0	95.0	94.0	93.0	92.0	91.0	91.0	90.0	89.0	88.0	88.0	87.0	87.0	87.0	86.0	86.0	86.0	86.0	85.0	85.0	84.0	84.0	84.0	85.0	86.0	89.0	93.0	98.0	103.0	108.0	111.0	112.0	111.0	110.0	107.0	105.0	103.0	102.0	100.0	100.0	99.0	98.0	98.0	97.0	97.0	97.0	97.0	97.0	97.0	98.0	98.0	97.0	97.0	96.0	96.0	95.0	94.0	93.0	93.0	93.0	92.0	92.0	92.0	92.0	92.0	92.0	92.0	92.0	91.0	91.0	91.0	91.0	90.0	90.0	91.0	92.0	94.0	98.0	103.0	109.0	114.0	118.0	120.0	120.0	119.0	118.0	115.0	113.0	111.0	109.0	107.0	106.0	104.0	103.0	102.0	102.0	102.0	102.0	102.0	102.0	102.0	102.0	102.0	102.0	102.0	101.0	100.0	99.0	98.0	97.0	96.0	95.0	94.0	93.0	92.0	92.0	92.0	91.0	91.0	91.0	91.0	91.0	91.0	91.0	91.0	91.0	91.0	91.0	91.0	91.0	91.0	91.0	90.0	90.0	90.0	90.0	89.0	89.0	89.0	89.0	90.0	92.0	95.0	101.0	107.0	114.0	119.0	122.0	123.0	122.0	121.0	119.0	117.0	115.0	113.0	112.0	110.0	109.0	108.0	107.0	106.0	105.0	105.0	104.0	103.0	103.0	102.0	102.0	101.0	101.0	100.0	100.0	99.0	98.0	98.0	97.0	97.0	96.0	96.0	95.0	95.0	94.0	94.0	93.0	93.0	92.0	91.0	91.0	90.0	89.0	89.0	89.0	89.0	89.0	90.0	90.0	90.0	90.0	91.0	91.0	91.0	92.0	94.0	97.0	101.0	106.0	111.0	116.0	118.0	119.0	119.0	118.0	116.0	114.0	112.0	111.0	109.0	108.0	107.0	106.0	106.0	105.0	105.0	105.0	105.0	104.0	104.0	104.0	104.0	103.0	103.0	102.0	102.0	101.0	101.0	101.0	101.0	101.0	101.0	101.0	101.0	100.0	100.0	100.0	100.0	99.0	98.0	98.0	97.0	96.0	95.0	94.0	94.0	93.0	93.0	93.0	93.0	92.0	92.0	92.0	92.0	92.0	92.0	93.0	96.0	100.0	104.0	109.0	114.0	116.0	118.0	117.0	116.0	114.0	111.0	109.0	107.0	104.0	103.0	101.0	100.0	99.0	99.0	99.0	100.0	100.0	101.0	102.0	102.0	102.0	102.0	102.0	101.0	101.0	100.0	98.0	97.0	95.0	94.0	92.0	91.0	90.0	89.0	88.0	87.0	87.0	87.0	87.0	87.0	86.0	86.0	86.0	85.0	85.0	86.0	86.0	87.0	89.0	91.0	94.0	98.0	102.0	105.0	108.0	110.0	110.0	110.0	110.0	109.0	108.0	107.0	106.0	105.0	104.0	103.0	103.0	102.0	101.0	101.0	101.0	100.0	100.0	100.0	101.0	101.0	101.0	101.0	100.0	100.0	99.0	99.0	98.0	97.0	96.0	95.0	94.0	94.0	93.0	92.0	91.0	91.0	90.0	90.0	89.0	89.0	89.0	90.0	90.0	91.0	91.0	92.0	92.0	93.0	93.0	93.0	93.0	93.0	93.0	94.0	95.0	97.0	101.0	106.0	112.0	118.0	123.0	126.0	127.0	126.0	124.0	121.0	119.0	117.0	114.0	113.0	111.0	110.0	109.0	108.0	108.0	108.0	108.0	108.0	108.0	107.0	107.0	107.0	107.0	106.0	105.0	105.0	104.0	102.0	101.0	100.0	99.0	98.0	97.0	96.0	95.0	94.0	94.0	93.0	93.0	93.0	93.0	92.0	92.0	92.0	92.0	92.0	92.0	92.0	91.0	91.0	91.0	90.0	90.0	90.0	91.0	93.0	97.0	102.0	108.0	114.0	120.0	123.0	125.0	124.0	123.0	121.0	118.0	116.0	114.0	111.0	109.0	107.0	106.0	105.0	104.0	103.0	102.0	102.0	102.0	102.0	102.0	102.0	102.0	102.0	101.0	101.0	100.0	100.0	99.0	98.0	97.0	96.0	96.0	95.0	94.0	94.0	93.0	93.0	93.0	93.0	93.0	93.0	93.0	93.0	93.0	93.0	93.0	93.0	93.0	93.0	93.0	92.0	91.0	91.0	90.0	90.0	90.0	91.0	93.0	96.0	101.0	106.0	111.0	116.0	118.0	119.0	119.0	117.0	116.0	113.0	111.0	109.0	107.0	105.0	104.0	103.0	102.0	102.0	102.0	102.0	103.0	103.0	103.0	103.0	103.0	102.0	101.0	100.0	100.0	99.0	98.0	97.0	95.0	94.0	93.0	92.0	91.0	90.0	89.0	89.0	88.0	88.0	87.0	87.0	87.0	87.0	87.0	87.0	86.0	86.0	86.0	85.0	85.0	84.0	83.0	83.0	84.0	85.0	86.0	89.0	92.0	95.0	99.0	103.0	105.0	107.0	107.0	107.0	106.0	106.0	105.0	105.0	104.0	104.0	103.0	102.0	102.0	101.0	101.0	100.0	100.0	100.0	100.0	100.0	99.0	99.0	98.0	98.0	97.0	96.0	96.0	95.0	95.0	94.0	94.0	94.0	94.0	93.0	93.0	93.0	92.0	92.0	92.0	92.0	91.0	91.0	91.0	91.0	91.0	91.0	91.0	91.0	91.0	91.0	92.0	93.0	94.0	96.0	100.0	105.0	111.0	117.0	122.0	125.0	126.0	126.0	125.0	124.0	122.0	120.0	118.0	116.0	114.0	112.0	110.0	109.0	108.0	107.0	107.0	106.0	105.0	105.0	104.0	104.0	103.0	103.0	102.0	101.0	100.0	98.0	97.0	96.0	95.0	94.0	93.0	92.0	91.0	90.0	89.0	89.0	89.0	88.0	88.0	88.0	87.0	87.0	87.0	87.0	87.0	87.0	87.0	87.0	87.0	87.0	87.0	87.0	88.0	89.0	92.0	95.0	100.0	106.0	111.0	116.0	119.0	121.0	121.0	120.0	119.0	117.0	115.0	113.0	111.0	110.0	109.0	109.0	108.0	108.0	107.0	107.0	106.0	106.0	106.0	105.0	105.0	104.0	103.0	103.0	102.0	100.0	99.0	98.0	97.0	96.0	94.0	93.0	92.0	91.0	91.0	90.0	90.0	90.0	89.0	89.0	89.0	89.0	89.0	89.0	88.0	88.0	88.0	88.0	88.0	88.0	88.0	88.0	88.0	89.0	90.0	92.0	95.0	99.0	104.0	109.0	114.0	118.0	119.0	119.0	118.0	117.0	115.0	113.0	112.0	111.0	110.0	109.0	108.0	108.0	108.0	108.0	108.0	108.0	109.0	109.0	109.0	109.0	109.0	108.0	107.0	106.0	105.0	104.0	103.0	102.0	100.0	99.0	98.0	97.0	96.0	95.0	95.0	95.0	94.0	94.0	94.0	94.0	94.0	93.0	92.0	92.0	91.0	90.0	89.0	89.0	88.0	87.0	87.0	87.0	87.0	88.0	89.0	91.0	94.0	97.0	101.0	105.0	108.0	111.0	112.0	112.0	111.0	110.0	110.0	109.0	108.0	107.0	106.0	105.0	105.0	104.0	103.0	103.0	102.0	102.0	101.0	101.0	100.0	100.0	99.0	99.0	98.0	98.0	97.0	97.0	96.0	95.0	95.0	94.0	94.0	93.0	93.0	92.0	92.0	92.0	92.0	91.0	91.0	90.0	90.0	89.0	89.0	89.0	89.0	90.0	91.0	93.0	95.0	98.0	102.0	105.0	108.0	110.0	111.0	111.0	111.0	111.0	110.0	109.0	108.0	107.0	106.0	105.0	105.0	104.0	104.0	104.0	104.0	104.0	103.0	103.0	102.0	101.0	100.0	99.0	98.0	97.0	96.0	95.0	94.0	92.0	91.0	89.0	88.0	86.0	85.0	85.0	84.0	84.0	84.0	84.0	84.0	84.0	84.0	84.0	85.0	85.0	86.0	87.0	88.0	90.0	93.0	97.0	100.0	104.0	108.0	110.0	112.0	112.0	112.0	112.0	111.0	111.0	110.0	109.0	109.0	108.0	107.0	106.0	106.0	105.0	105.0	104.0	103.0	103.0	102.0	101.0	101.0	100.0	99.0	98.0	97.0	97.0	96.0	96.0	95.0	95.0	94.0	94.0	93.0	93.0	92.0	92.0	92.0	91.0	91.0	90.0	90.0	89.0	89.0	89.0	89.0	88.0	88.0	88.0	88.0	88.0	88.0	89.0	90.0	92.0	96.0	101.0	106.0	111.0	116.0	119.0	121.0	122.0	122.0	122.0	122.0	121.0	119.0	118.0	116.0	115.0	114.0	113.0	112.0	111.0	110.0	109.0	108.0	107.0	107.0	106.0	105.0	104.0	104.0	103.0	102.0	101.0	100.0	99.0	97.0	96.0	95.0	94.0	93.0	92.0	92.0	91.0	90.0	90.0	89.0	89.0	88.0	88.0	88.0	88.0	87.0	87.0	87.0	86.0	86.0	86.0	86.0	88.0	90.0	94.0	99.0	105.0	111.0	115.0	119.0	120.0	121.0	120.0	119.0	118.0	117.0	116.0	114.0	113.0	111.0	110.0	109.0	108.0	107.0	107.0	107.0	106.0	106.0	105.0	105.0	104.0	104.0	103.0	102.0	101.0	100.0	99.0	98.0	96.0	95.0	94.0	93.0	91.0	90.0	90.0	89.0	88.0	88.0	87.0	87.0	86.0	86.0	86.0	85.0	85.0	85.0	85.0	84.0	84.0	83.0	82.0	82.0	82.0	83.0	85.0	87.0	91.0	96.0	102.0	108.0	113.0	118.0	121.0	123.0	123.0	123.0	122.0	120.0	118.0	116.0	115.0	113.0	112.0	111.0	110.0	109.0	108.0	108.0	107.0	106.0	106.0	105.0	105.0	104.0	103.0	103.0	102.0	101.0	101.0	99.0	98.0	97.0	95.0	94.0	92.0	91.0	90.0	90.0	89.0	89.0	88.0	88.0	87.0	87.0	87.0	87.0	86.0	86.0	86.0	86.0	86.0	86.0	86.0	86.0	85.0	85.0	85.0	86.0	88.0	90.0	94.0	99.0	105.0	111.0	116.0	119.0	121.0	122.0	121.0	120.0	119.0	118.0	116.0	115.0	114.0	113.0	112.0	112.0	112.0	112.0	111.0	111.0	110.0	109.0	108.0	107.0	106.0	105.0	104.0	103.0	102.0	100.0	99.0	97.0	95.0	94.0	92.0	91.0	90.0	90.0	90.0	90.0	91.0	91.0	90.0	90.0	89.0	89.0	89.0	88.0	87.0	87.0	86.0	85.0	84.0	83.0	82.0	81.0	81.0	80.0	81.0	83.0	85.0	89.0	94.0	99.0	104.0	108.0	111.0	112.0	112.0	111.0	110.0	108.0	107.0	105.0	104.0	103.0	102.0	101.0	99.0	98.0	98.0	98.0	98.0	99.0	99.0	100.0	100.0	100.0	100.0	99.0	98.0	97.0	95.0	94.0	93.0	92.0	91.0	89.0	88.0	88.0	87.0	87.0	87.0	87.0	87.0	87.0	86.0	86.0	86.0	85.0	86.0	87.0	88.0	90.0	92.0	94.0	97.0	100.0	103.0	106.0	109.0	110.0	111.0	110.0	110.0	109.0	108.0	107.0	107.0	106.0	105.0	105.0	104.0	103.0	102.0	102.0	102.0	103.0	103.0	103.0	103.0	103.0	102.0	101.0	100.0	98.0	97.0	97.0	96.0	95.0	94.0	94.0	93.0	93.0	93.0	93.0	92.0	92.0	91.0	91.0	90.0	90.0	90.0	89.0	89.0	88.0	88.0	88.0	88.0	88.0	88.0	88.0	87.0	87.0	88.0	89.0	91.0	93.0	96.0	100.0	105.0	110.0	115.0	119.0	121.0	122.0	122.0	121.0	121.0	120.0	119.0	118.0	117.0	116.0	115.0	114.0	113.0	112.0	112.0	111.0	110.0	110.0	109.0	109.0	108.0	108.0	107.0	106.0	105.0	104.0	102.0	101.0	99.0	97.0	96.0	95.0	94.0	94.0	93.0	93.0	92.0	92.0	92.0	92.0	92.0	91.0	91.0	91.0	91.0	91.0	91.0	91.0	90.0	90.0	89.0	89.0	90.0	90.0	91.0	93.0	96.0	100.0	104.0	109.0	114.0	117.0	119.0	120.0	120.0	119.0	118.0	117.0	115.0	114.0	112.0	112.0	111.0	110.0	110.0	110.0	109.0	109.0	108.0	108.0	108.0	108.0	107.0	107.0	106.0	105.0	104.0	103.0	101.0	100.0	98.0	97.0	96.0	94.0	93.0	93.0	92.0	91.0	91.0	91.0	90.0	90.0	90.0	89.0	89.0	89.0	89.0	88.0	88.0	88.0	87.0	86.0	86.0	86.0	85.0	86.0	87.0	89.0	91.0	95.0	100.0	105.0	110.0	114.0	117.0	119.0	119.0	118.0	117.0	116.0	114.0	113.0	112.0	111.0	111.0	111.0	110.0	110.0	110.0	110.0	109.0	109.0	109.0	109.0	108.0	108.0	107.0	106.0	106.0	105.0	104.0	104.0	103.0	102.0	100.0	99.0	98.0	96.0	96.0	95.0	94.0	94.0	94.0	94.0	93.0	93.0	92.0	91.0	91.0	90.0	89.0	88.0	88.0	87.0	87.0	86.0	86.0	86.0	86.0	86.0	87.0	89.0	91.0	94.0	98.0	103.0	107.0	111.0	114.0	115.0	115.0	115.0	114.0	112.0	111.0	110.0	109.0	108.0	108.0	108.0	108.0	107.0	107.0	107.0	106.0	106.0	105.0	105.0	104.0	103.0	102.0	101.0	100.0	99.0	98.0	97.0	96.0	95.0	94.0	92.0	92.0	91.0	90.0	90.0	89.0	89.0	89.0	89.0	89.0	89.0	89.0	89.0	89.0	88.0	88.0	87.0	86.0	85.0	85.0	85.0	86.0	87.0	88.0	90.0	92.0	94.0	97.0	100.0	103.0	106.0	107.0	108.0	108.0	107.0	106.0	104.0	103.0	102.0	102.0	102.0	101.0	101.0	101.0	100.0	100.0	99.0	99.0	99.0	98.0	98.0	98.0	97.0	97.0	96.0	95.0	94.0	94.0	93.0	93.0	92.0	92.0	91.0	91.0	90.0	90.0	90.0	89.0	89.0	89.0	88.0	88.0	88.0	87.0	87.0	87.0	87.0	88.0	89.0	91.0	93.0	96.0	100.0	104.0	108.0	111.0	113.0	115.0	116.0	116.0	115.0	114.0	114.0	113.0	112.0	111.0	110.0	109.0	108.0	108.0	107.0	107.0	106.0	106.0	105.0	104.0	103.0	102.0	101.0	100.0	99.0	98.0	97.0	96.0	95.0	95.0	94.0	93.0	92.0	92.0	91.0	91.0	90.0	90.0	90.0	89.0	89.0	89.0	89.0	88.0	88.0	88.0	88.0	88.0	88.0	88.0	88.0	87.0	87.0	87.0	86.0	86.0	86.0	86.0	87.0	88.0	91.0	94.0	98.0	102.0	107.0	112.0	115.0	118.0	119.0	120.0	120.0	119.0	119.0	119.0	118.0	118.0	117.0	117.0	116.0	115.0	115.0	115.0	114.0	114.0	113.0	113.0	112.0	112.0	111.0	110.0	109.0	107.0	106.0	104.0	103.0	101.0	100.0	99.0	98.0	96.0	96.0	95.0	94.0	93.0	93.0	92.0	92.0	92.0	91.0	91.0	90.0	90.0	90.0	90.0	90.0	89.0	89.0	89.0	88.0	88.0	87.0	87.0	88.0	89.0	91.0	93.0	97.0	100.0	105.0	109.0	113.0	116.0	118.0	118.0	118.0	117.0	116.0	115.0	115.0	114.0	113.0	112.0	112.0	111.0	111.0	111.0	110.0	110.0	110.0	109.0	109.0	109.0	108.0	107.0	106.0	105.0	104.0	102.0	101.0	100.0	98.0	97.0	96.0	95.0	94.0	93.0	92.0	91.0	91.0	90.0	90.0	90.0	89.0	89.0	89.0	88.0	88.0	88.0	88.0	88.0	87.0	87.0	87.0	87.0	87.0	87.0	88.0	90.0	92.0	95.0	98.0	103.0	108.0	113.0	117.0	120.0	122.0	123.0	122.0	122.0	120.0	119.0	118.0	116.0	115.0	114.0	114.0	113.0	112.0	112.0	112.0	111.0	111.0	110.0	109.0	107.0	106.0	105.0	103.0	102.0	101.0	99.0	98.0	96.0	95.0	94.0	93.0	92.0	92.0	91.0	91.0	90.0	90.0	89.0	89.0	89.0	88.0	88.0	88.0	87.0	87.0	87.0	87.0	86.0	86.0	85.0	85.0	85.0	86.0	88.0	90.0	93.0	97.0	101.0	105.0	109.0	113.0	115.0	116.0	115.0	114.0	113.0	111.0	108.0	106.0	105.0	103.0	102.0	101.0	100.0	99.0	98.0	98.0	98.0	97.0	97.0	97.0	96.0	95.0	94.0	93.0	92.0	91.0	90.0	89.0	89.0	88.0	87.0	87.0	87.0	87.0	87.0	87.0	87.0	87.0	87.0	87.0	87.0	87.0	87.0	86.0	86.0	86.0	86.0	86.0	86.0	87.0	88.0	89.0	91.0	94.0	97.0	100.0	104.0	108.0	112.0	114.0	116.0	116.0	116.0	116.0	115.0	114.0	113.0	112.0	111.0	110.0	109.0	109.0	108.0	108.0	107.0	107.0	107.0	107.0	106.0	106.0	105.0	104.0	104.0	103.0	101.0	100.0	99.0	98.0	96.0	95.0	94.0	93.0	92.0	91.0	91.0	90.0	89.0	89.0	89.0	88.0	88.0	88.0	88.0	88.0	88.0	88.0	88.0	87.0	87.0	87.0	87.0	87.0	88.0	89.0	91.0	94.0	98.0	101.0	106.0	110.0	113.0	116.0	118.0	119.0	119.0	118.0	118.0	117.0	117.0	116.0	115.0	115.0	114.0	113.0	113.0	112.0	112.0	111.0	111.0	110.0	110.0	109.0	108.0	108.0	106.0	105.0	104.0	102.0	101.0	99.0	98.0	96.0	95.0	94.0	94.0	93.0	93.0	93.0	92.0	92.0	92.0	92.0	91.0	91.0	91.0	90.0	90.0	90.0	89.0	89.0	88.0	88.0	88.0	88.0	88.0	90.0	91.0	94.0	97.0	101.0	106.0	110.0	115.0	118.0	120.0	121.0	121.0	121.0	120.0	119.0	117.0	116.0	115.0	114.0	112.0	111.0	110.0	110.0	109.0	108.0	108.0	107.0	106.0	105.0	104.0	103.0	102.0	101.0	99.0	98.0	97.0	96.0	95.0	94.0	93.0	92.0	91.0	91.0	90.0	90.0	90.0	89.0	89.0	89.0	89.0	89.0	88.0	88.0	88.0	89.0	88.0	88.0	88.0	88.0	87.0	88.0	89.0	90.0	92.0	96.0	100.0	105.0	111.0	116.0	121.0	125.0	127.0	127.0	127.0	127.0	126.0	124.0	123.0	121.0	120.0	119.0	118.0	117.0	117.0	116.0	115.0	114.0	113.0	111.0	110.0	109.0	107.0	106.0	105.0	103.0	102.0	100.0	99.0	98.0	96.0	95.0	94.0	93.0	92.0	91.0	91.0	90.0	90.0	89.0	89.0	88.0	88.0	88.0	88.0	87.0	87.0	87.0	86.0	85.0	85.0	84.0	84.0	84.0	84.0	86.0	87.0	90.0	94.0	98.0	102.0	106.0	108.0	110.0	111.0	111.0	110.0	109.0	107.0	106.0	105.0	104.0	103.0	103.0	103.0	102.0	102.0	102.0	101.0	101.0	100.0	99.0	98.0	97.0	96.0	95.0	94.0	93.0	92.0	90.0	89.0	88.0	87.0	87.0	86.0	86.0	86.0	86.0	86.0	86.0	86.0	86.0	86.0	86.0	86.0	86.0	85.0	85.0	85.0	84.0	84.0	85.0	86.0	87.0	90.0	93.0	97.0	101.0	106.0	111.0	114.0	117.0	119.0	119.0	119.0	119.0	118.0	117.0	116.0	115.0	114.0	113.0	112.0	111.0	110.0	109.0	108.0	108.0	107.0	106.0	105.0	105.0	104.0	103.0	102.0	100.0	99.0	98.0	97.0	95.0	94.0	93.0	93.0	92.0	92.0	91.0	91.0	90.0	90.0	89.0	89.0	89.0	89.0	89.0	88.0	88.0	88.0	87.0	87.0	86.0	86.0	86.0	87.0	88.0	90.0	93.0	97.0	102.0	108.0	113.0	118.0	121.0	123.0	124.0	124.0	123.0	122.0	120.0	119.0	117.0	115.0	113.0	112.0	110.0	109.0	108.0	107.0	107.0	106.0	105.0	104.0	103.0	103.0	102.0	101.0	100.0	99.0	98.0	97.0	96.0	95.0	94.0	93.0	92.0	92.0	92.0	92.0	92.0	92.0	92.0	91.0	91.0	91.0	91.0	90.0	90.0	89.0	89.0	88.0	88.0	87.0	87.0	86.0	87.0	88.0	90.0	93.0	97.0	102.0	108.0	113.0	118.0	122.0	125.0	126.0	126.0	126.0	124.0	123.0	121.0	120.0	118.0	117.0	116.0	115.0	114.0	114.0	113.0	112.0	111.0	110.0	108.0	107.0	106.0	104.0	103.0	102.0	100.0	98.0	97.0	95.0	93.0	91.0	89.0	87.0	85.0	84.0	82.0	81.0	80.0	80.0	79.0	79.0	79.0	