67.0	66.0	66.0	66.0	66.0	66.0	66.0	65.0	65.0	64.0	63.0	61.0	60.0	60.0	59.0	59.0	59.0	60.0	63.0	69.0	80.0	96.0	115.0	135.0	154.0	170.0	181.0	186.0	186.0	183.0	177.0	170.0	164.0	158.0	153.0	150.0	147.0	144.0	141.0	139.0	136.0	134.0	132.0	130.0	128.0	127.0	126.0	123.0	121.0	118.0	115.0	112.0	109.0	106.0	102.0	99.0	95.0	91.0	87.0	84.0	81.0	78.0	76.0	75.0	74.0	73.0	73.0	72.0	71.0	70.0	69.0	68.0	68.0	68.0	68.0	67.0	67.0	67.0	67.0	66.0	65.0	65.0	64.0	63.0	62.0	62.0	62.0	62.0	62.0	62.0	61.0	61.0	62.0	64.0	70.0	80.0	96.0	115.0	135.0	154.0	169.0	179.0	183.0	182.0	177.0	171.0	164.0	157.0	150.0	145.0	141.0	137.0	134.0	130.0	127.0	125.0	123.0	122.0	121.0	120.0	119.0	117.0	114.0	111.0	107.0	103.0	99.0	95.0	92.0	88.0	85.0	81.0	78.0	75.0	72.0	70.0	68.0	66.0	65.0	65.0	65.0	65.0	64.0	64.0	63.0	63.0	62.0	62.0	62.0	62.0	62.0	62.0	62.0	61.0	61.0	60.0	60.0	59.0	59.0	59.0	60.0	60.0	61.0	61.0	61.0	60.0	60.0	60.0	60.0	62.0	68.0	77.0	92.0	110.0	130.0	150.0	167.0	179.0	185.0	186.0	183.0	177.0	169.0	162.0	76.0	75.0	75.0	75.0	75.0	75.0	74.0	74.0	73.0	73.0	72.0	72.0	72.0	72.0	72.0	71.0	71.0	70.0	70.0	69.0	68.0	68.0	67.0	67.0	66.0	65.0	115.0	110.0	104.0	98.0	92.0	85.0	80.0	75.0	70.0	67.0	63.0	60.0	56.0	53.0	50.0	48.0	47.0	46.0	46.0	44.0	42.0	40.0	38.0	38.0	40.0	44.0	51.0	57.0	64.0	68.0	71.0	73.0	73.0	72.0	72.0	71.0	71.0	72.0	72.0	72.0	72.0	72.0	72.0	75.0	80.0	87.0	97.0	109.0	121.0	131.0	140.0	148.0	153.0	157.0	159.0	159.0	157.0	154.0	150.0	145.0	141.0	137.0	134.0	131.0	130.0	130.0	130.0	131.0	131.0	130.0	129.0	128.0	126.0	124.0	121.0	118.0	114.0	111.0	108.0	105.0	102.0	101.0	100.0	99.0	98.0	96.0	95.0	93.0	92.0	90.0	89.0	88.0	88.0	87.0	86.0	85.0	85.0	84.0	83.0	82.0	81.0	80.0	79.0	79.0	79.0	78.0	77.0	74.0	71.0	68.0	65.0	63.0	62.0	64.0	70.0	77.0	87.0	99.0	110.0	120.0	127.0	133.0	135.0	135.0	133.0	130.0	127.0	125.0	122.0	120.0	117.0	115.0	112.0	110.0	108.0	106.0	105.0	104.0	104.0	102.0	101.0	98.0	96.0	93.0	90.0	87.0	85.0	83.0	81.0	79.0	77.0	75.0	72.0	70.0	67.0	65.0	63.0	62.0	62.0	62.0	63.0	64.0	64.0	64.0	64.0	63.0	61.0	60.0	59.0	59.0	59.0	59.0	59.0	60.0	61.0	61.0	62.0	61.0	60.0	59.0	58.0	58.0	59.0	62.0	68.0	76.0	87.0	98.0	110.0	120.0	127.0	133.0	136.0	137.0	136.0	135.0	133.0	131.0	128.0	126.0	121.0	115.0	108.0	101.0	95.0	91.0	88.0	87.0	88.0	89.0	90.0	91.0	91.0	90.0	89.0	88.0	86.0	85.0	84.0	85.0	86.0	88.0	89.0	89.0	88.0	85.0	82.0	79.0	76.0	75.0	74.0	74.0	74.0	75.0	76.0	78.0	80.0	82.0	84.0	85.0	86.0	86.0	86.0	84.0	83.0	82.0	81.0	80.0	80.0	79.0	79.0	78.0	79.0	81.0	84.0	90.0	98.0	108.0	119.0	128.0	137.0	145.0	149.0	151.0	151.0	148.0	145.0	140.0	136.0	131.0	127.0	124.0	121.0	118.0	116.0	114.0	113.0	113.0	113.0	113.0	114.0	113.0	113.0	112.0	110.0	109.0	106.0	103.0	100.0	97.0	93.0	90.0	87.0	84.0	83.0	82.0	82.0	83.0	85.0	87.0	89.0	91.0	93.0	94.0	95.0	95.0	96.0	96.0	97.0	97.0	97.0	96.0	94.0	91.0	88.0	85.0	83.0	83.0	87.0	95.0	106.0	120.0	132.0	143.0	151.0	155.0	155.0	152.0	147.0	141.0	134.0	127.0	122.0	116.0	110.0	105.0	101.0	98.0	97.0	98.0	100.0	102.0	105.0	108.0	110.0	111.0	111.0	109.0	106.0	102.0	98.0	93.0	87.0	83.0	78.0	75.0	72.0	70.0	69.0	68.0	68.0	68.0	69.0	70.0	71.0	73.0	73.0	74.0	74.0	74.0	74.0	74.0	74.0	73.0	73.0	73.0	74.0	78.0	87.0	100.0	117.0	135.0	155.0	172.0	185.0	193.0	197.0	196.0	192.0	187.0	180.0	174.0	168.0	162.0	158.0	154.0	149.0	144.0	139.0	134.0	129.0	126.0	122.0	120.0	117.0	116.0	114.0	112.0	110.0	108.0	106.0	104.0	101.0	99.0	96.0	92.0	88.0	84.0	79.0	75.0	70.0	66.0	62.0	59.0	55.0	52.0	50.0	49.0	49.0	49.0	50.0	51.0	52.0	53.0	53.0	53.0	53.0	52.0	52.0	51.0	51.0	51.0	51.0	51.0	52.0	53.0	56.0	60.0	66.0	74.0	84.0	95.0	106.0	117.0	126.0	132.0	138.0	141.0	143.0	143.0	142.0	140.0	139.0	137.0	135.0	134.0	133.0	131.0	130.0	127.0	126.0	123.0	120.0	117.0	114.0	112.0	109.0	107.0	103.0	100.0	96.0	91.0	86.0	82.0	78.0	75.0	74.0	76.0	79.0	83.0	86.0	89.0	91.0	92.0	96.0	102.0	111.0	120.0	127.0	128.0	124.0	114.0	101.0	87.0	76.0	67.0	61.0	58.0	55.0	53.0	51.0	49.0	46.0	43.0	40.0	36.0	33.0	32.0	37.0	47.0	62.0	81.0	100.0	117.0	128.0	135.0	138.0	138.0	135.0	131.0	127.0	125.0	123.0	122.0	122.0	122.0	123.0	123.0	122.0	121.0	119.0	117.0	116.0	115.0	114.0	113.0	112.0	111.0	110.0	109.0	107.0	106.0	105.0	103.0	100.0	96.0	92.0	88.0	85.0	84.0	83.0	82.0	81.0	79.0	77.0	74.0	71.0	69.0	67.0	66.0	64.0	63.0	63.0	62.0	62.0	62.0	62.0	63.0	63.0	63.0	63.0	63.0	62.0	62.0	61.0	61.0	61.0	61.0	63.0	67.0	76.0	88.0	102.0	118.0	131.0	141.0	148.0	151.0	151.0	148.0	144.0	139.0	135.0	131.0	127.0	126.0	124.0	122.0	120.0	118.0	115.0	113.0	112.0	111.0	111.0	111.0	111.0	111.0	110.0	109.0	108.0	106.0	104.0	101.0	98.0	95.0	93.0	90.0	88.0	86.0	84.0	82.0	80.0	79.0	77.0	76.0	74.0	71.0	67.0	62.0	58.0	53.0	50.0	48.0	48.0	49.0	52.0	55.0	59.0	62.0	65.0	68.0	69.0	70.0	70.0	69.0	67.0	65.0	64.0	64.0	69.0	77.0	89.0	104.0	120.0	133.0	143.0	150.0	152.0	150.0	146.0	141.0	135.0	129.0	125.0	121.0	117.0	115.0	114.0	113.0	111.0	110.0	108.0	107.0	106.0	105.0	105.0	104.0	103.0	102.0	101.0	100.0	98.0	97.0	95.0	94.0	92.0	90.0	87.0	84.0	81.0	78.0	75.0	73.0	72.0	71.0	71.0	72.0	73.0	74.0	75.0	77.0	78.0	79.0	80.0	81.0	82.0	83.0	83.0	83.0	83.0	83.0	83.0	85.0	87.0	89.0	94.0	100.0	109.0	120.0	133.0	148.0	161.0	173.0	181.0	187.0	189.0	188.0	185.0	180.0	174.0	168.0	162.0	157.0	153.0	149.0	146.0	144.0	143.0	142.0	141.0	141.0	141.0	141.0	141.0	141.0	139.0	137.0	135.0	133.0	130.0	127.0	125.0	123.0	120.0	117.0	114.0	111.0	108.0	105.0	103.0	101.0	100.0	99.0	98.0	97.0	96.0	94.0	93.0	91.0	90.0	88.0	88.0	87.0	86.0	85.0	83.0	82.0	81.0	81.0	82.0	86.0	94.0	105.0	117.0	128.0	138.0	144.0	147.0	146.0	143.0	138.0	132.0	126.0	120.0	115.0	111.0	108.0	106.0	105.0	103.0	102.0	100.0	99.0	99.0	99.0	99.0	99.0	99.0	99.0	98.0	97.0	96.0	95.0	93.0	91.0	89.0	87.0	86.0	84.0	82.0	81.0	80.0	79.0	78.0	78.0	77.0	77.0	77.0	77.0	77.0	78.0	78.0	79.0	79.0	79.0	79.0	79.0	79.0	79.0	79.0	79.0	81.0	85.0	93.0	103.0	115.0	127.0	134.0	138.0	137.0	133.0	127.0	121.0	115.0	109.0	103.0	97.0	93.0	89.0	85.0	83.0	81.0	80.0	80.0	81.0	83.0	85.0	86.0	88.0	88.0	88.0	86.0	84.0	82.0	79.0	76.0	74.0	72.0	70.0	68.0	67.0	66.0	66.0	66.0	66.0	65.0	63.0	62.0	61.0	61.0	61.0	61.0	61.0	61.0	60.0	57.0	54.0	50.0	46.0	41.0	37.0	33.0	30.0	30.0	32.0	38.0	49.0	64.0	81.0	97.0	111.0	120.0	125.0	126.0	123.0	119.0	114.0	110.0	107.0	105.0	104.0	104.0	104.0	105.0	106.0	106.0	107.0	108.0	109.0	111.0	113.0	116.0	118.0	120.0	121.0	120.0	120.0	118.0	116.0	114.0	112.0	110.0	109.0	108.0	107.0	106.0	105.0	104.0	103.0	102.0	101.0	100.0	100.0	99.0	99.0	99.0	99.0	99.0	99.0	99.0	99.0	99.0	99.0	98.0	97.0	96.0	95.0	95.0	94.0	96.0	101.0	110.0	122.0	135.0	149.0	162.0	171.0	175.0	175.0	172.0	166.0	159.0	152.0	145.0	139.0	134.0	131.0	128.0	127.0	125.0	124.0	122.0	122.0	122.0	122.0	123.0	124.0	125.0	125.0	124.0	122.0	120.0	118.0	115.0	112.0	109.0	106.0	103.0	101.0	99.0	97.0	95.0	93.0	91.0	90.0	88.0	87.0	86.0	85.0	84.0	84.0	83.0	83.0	83.0	82.0	81.0	81.0	80.0	79.0	78.0	77.0	77.0	76.0	76.0	75.0	76.0	77.0	82.0	89.0	101.0	115.0	129.0	143.0	153.0	159.0	160.0	158.0	152.0	146.0	138.0	132.0	127.0	122.0	119.0	116.0	114.0	113.0	111.0	110.0	110.0	110.0	110.0	112.0	113.0	114.0	114.0	114.0	113.0	112.0	110.0	108.0	105.0	102.0	100.0	97.0	95.0	93.0	91.0	89.0	88.0	87.0	86.0	85.0	85.0	85.0	85.0	85.0	85.0	85.0	85.0	86.0	86.0	86.0	86.0	86.0	85.0	85.0	84.0	83.0	82.0	81.0	81.0	81.0	81.0	82.0	86.0	93.0	103.0	116.0	130.0	143.0	153.0	160.0	162.0	160.0	156.0	149.0	142.0	135.0	128.0	123.0	118.0	114.0	110.0	107.0	104.0	102.0	102.0	102.0	103.0	105.0	106.0	108.0	109.0	109.0	108.0	106.0	104.0	102.0	99.0	96.0	93.0	91.0	89.0	87.0	85.0	83.0	81.0	80.0	79.0	78.0	78.0	78.0	78.0	78.0	78.0	79.0	79.0	79.0	79.0	79.0	79.0	79.0	78.0	77.0	77.0	76.0	75.0	76.0	78.0	84.0	94.0	107.0	122.0	136.0	150.0	160.0	165.0	166.0	164.0	159.0	153.0	146.0	139.0	133.0	129.0	126.0	123.0	120.0	117.0	115.0	113.0	112.0	111.0	110.0	111.0	111.0	111.0	111.0	110.0	109.0	107.0	104.0	102.0	99.0	96.0	93.0	90.0	87.0	85.0	82.0	80.0	78.0	77.0	76.0	74.0	74.0	73.0	73.0	73.0	73.0	73.0	73.0	73.0	73.0	73.0	72.0	72.0	72.0	72.0	72.0	72.0	71.0	71.0	70.0	71.0	74.0	80.0	89.0	103.0	119.0	135.0	150.0	162.0	169.0	172.0	171.0	167.0	160.0	154.0	147.0	141.0	136.0	132.0	128.0	126.0	124.0	121.0	119.0	117.0	117.0	116.0	116.0	116.0	116.0	116.0	114.0	112.0	110.0	107.0	104.0	100.0	97.0	93.0	90.0	87.0	84.0	81.0	79.0	77.0	75.0	73.0	72.0	71.0	70.0	69.0	69.0	69.0	69.0	69.0	69.0	69.0	69.0	69.0	69.0	68.0	68.0	68.0	68.0	68.0	68.0	67.0	67.0	67.0	67.0	69.0	75.0	84.0	97.0	114.0	131.0	147.0	161.0	170.0	174.0	175.0	171.0	166.0	159.0	152.0	146.0	141.0	136.0	133.0	129.0	127.0	125.0	123.0	121.0	120.0	120.0	120.0	120.0	120.0	119.0	118.0	116.0	113.0	110.0	107.0	103.0	100.0	97.0	93.0	90.0	87.0	84.0	82.0	79.0	77.0	75.0	73.0	72.0	71.0	71.0	70.0	70.0	70.0	70.0	69.0	69.0	69.0	69.0	68.0	68.0	67.0	67.0	66.0	65.0	65.0	64.0	63.0	62.0	62.0	63.0	68.0	76.0	88.0	103.0	120.0	135.0	149.0	159.0	164.0	164.0	162.0	156.0	150.0	143.0	136.0	130.0	126.0	121.0	117.0	114.0	111.0	109.0	107.0	107.0	107.0	108.0	109.0	109.0	109.0	108.0	106.0	104.0	101.0	97.0	94.0	90.0	87.0	84.0	81.0	79.0	76.0	74.0	72.0	71.0	70.0	69.0	68.0	68.0	68.0	68.0	68.0	68.0	68.0	68.0	68.0	68.0	68.0	68.0	67.0	67.0	67.0	67.0	66.0	66.0	65.0	64.0	64.0	64.0	66.0	72.0	82.0	96.0	113.0	131.0	149.0	163.0	173.0	179.0	180.0	177.0	172.0	165.0	159.0	153.0	147.0	143.0	140.0	136.0	133.0	130.0	127.0	125.0	122.0	121.0	120.0	119.0	118.0	117.0	116.0	113.0	111.0	107.0	103.0	99.0	95.0	91.0	87.0	84.0	81.0	78.0	75.0	73.0	71.0	69.0	68.0	68.0	67.0	67.0	67.0	66.0	66.0	66.0	66.0	66.0	66.0	65.0	65.0	65.0	65.0	65.0	64.0	64.0	63.0	63.0	62.0	62.0	61.0	60.0	60.0	60.0	61.0	64.0	72.0	84.0	100.0	119.0	138.0	155.0	170.0	179.0	184.0	184.0	180.0	174.0	168.0	161.0	155.0	151.0	147.0	144.0	141.0	139.0	136.0	133.0	131.0	129.0	128.0	127.0	127.0	126.0	124.0	122.0	119.0	115.0	111.0	106.0	102.0	98.0	93.0	89.0	85.0	82.0	78.0	76.0	73.0	71.0	69.0	68.0	66.0	66.0	65.0	64.0	64.0	64.0	63.0	63.0	62.0	62.0	61.0	61.0	60.0	60.0	59.0	59.0	59.0	59.0	58.0	58.0	58.0	58.0	58.0	58.0	57.0	57.0	57.0	58.0	62.0	69.0	81.0	96.0	115.0	133.0	151.0	165.0	175.0	180.0	180.0	177.0	172.0	165.0	158.0	151.0	146.0	141.0	137.0	133.0	130.0	127.0	125.0	123.0	122.0	122.0	122.0	121.0	121.0	119.0	117.0	114.0	110.0	106.0	102.0	97.0	93.0	89.0	85.0	82.0	78.0	75.0	72.0	70.0	68.0	66.0	65.0	64.0	63.0	62.0	62.0	62.0	61.0	61.0	61.0	60.0	60.0	60.0	59.0	59.0	59.0	58.0	58.0	58.0	58.0	57.0	57.0	56.0	56.0	56.0	56.0	57.0	61.0	69.0	81.0	98.0	118.0	137.0	155.0	170.0	180.0	185.0	185.0	181.0	175.0	168.0	161.0	155.0	150.0	146.0	142.0	139.0	136.0	132.0	129.0	127.0	125.0	124.0	123.0	122.0	121.0	119.0	117.0	114.0	111.0	107.0	103.0	98.0	94.0	89.0	85.0	82.0	78.0	75.0	72.0	70.0	68.0	66.0	65.0	64.0	63.0	63.0	62.0	62.0	62.0	61.0	61.0	61.0	60.0	60.0	59.0	59.0	58.0	58.0	58.0	57.0	57.0	57.0	57.0	57.0	57.0	56.0	56.0	56.0	56.0	56.0	57.0	60.0	68.0	80.0	96.0	117.0	137.0	158.0	175.0	187.0	193.0	194.0	192.0	186.0	179.0	171.0	165.0	159.0	155.0	151.0	148.0	145.0	142.0	138.0	135.0	132.0	130.0	128.0	127.0	126.0	124.0	122.0	119.0	115.0	111.0	107.0	103.0	98.0	94.0	89.0	85.0	82.0	78.0	75.0	72.0	70.0	68.0	66.0	65.0	64.0	63.0	62.0	62.0	61.0	61.0	61.0	60.0	60.0	60.0	59.0	59.0	58.0	58.0	58.0	57.0	57.0	57.0	57.0	57.0	57.0	57.0	57.0	57.0	57.0	57.0	57.0	57.0	59.0	62.0	69.0	81.0	97.0	118.0	139.0	160.0	177.0	190.0	196.0	198.0	195.0	190.0	183.0	176.0	169.0	163.0	159.0	155.0	151.0	148.0	144.0	141.0	138.0	135.0	133.0	132.0	130.0	129.0	127.0	126.0	123.0	119.0	115.0	110.0	105.0	100.0	95.0	90.0	86.0	82.0	79.0	76.0	73.0	71.0	69.0	67.0	66.0	65.0	64.0	63.0	63.0	63.0	62.0	62.0	62.0	61.0	61.0	60.0	60.0	59.0	59.0	58.0	58.0	57.0	57.0	56.0	56.0	56.0	56.0	55.0	55.0	55.0	55.0	55.0	54.0	55.0	56.0	59.0	66.0	78.0	93.0	113.0	132.0	152.0	168.0	179.0	185.0	186.0	182.0	176.0	168.0	160.0	153.0	146.0	140.0	136.0	131.0	127.0	125.0	122.0	120.0	119.0	119.0	119.0	119.0	118.0	117.0	115.0	113.0	109.0	105.0	100.0	95.0	91.0	86.0	82.0	78.0	75.0	72.0	70.0	67.0	65.0	64.0	63.0	62.0	62.0	62.0	61.0	61.0	61.0	61.0	61.0	61.0	61.0	61.0	60.0	60.0	60.0	59.0	59.0	58.0	58.0	58.0	58.0	58.0	58.0	58.0	58.0	58.0	58.0	58.0	58.0	57.0	57.0	57.0	58.0	62.0	69.0	82.0	100.0	121.0	144.0	166.0	184.0	198.0	206.0	208.0	207.0	202.0	195.0	188.0	181.0	175.0	170.0	165.0	162.0	158.0	155.0	151.0	147.0	144.0	140.0	137.0	134.0	130.0	127.0	124.0	120.0	116.0	112.0	107.0	103.0	99.0	95.0	91.0	87.0	83.0	80.0	77.0	75.0	73.0	71.0	69.0	67.0	66.0	66.0	65.0	64.0	64.0	64.0	63.0	62.0	62.0	61.0	60.0	59.0	59.0	58.0	57.0	56.0	56.0	55.0	55.0	54.0	54.0	55.0	55.0	55.0	55.0	56.0	56.0	56.0	55.0	55.0	56.0	57.0	61.0	70.0	84.0	103.0	125.0	148.0	171.0	189.0	202.0	209.0	211.0	208.0	201.0	193.0	184.0	177.0	171.0	166.0	163.0	160.0	157.0	154.0	150.0	147.0	143.0	140.0	137.0	134.0	132.0	129.0	127.0	124.0	120.0	115.0	110.0	105.0	101.0	96.0	91.0	87.0	83.0	79.0	75.0	72.0	69.0	66.0	64.0	62.0	61.0	59.0	58.0	57.0	56.0	55.0	54.0	53.0	52.0	52.0	52.0	52.0	52.0	51.0	51.0	51.0	51.0	50.0	50.0	49.0	49.0	49.0	49.0	49.0	49.0	48.0	48.0	47.0	46.0	46.0	47.0	50.0	56.0	66.0	82.0	102.0	124.0	145.0	165.0	180.0	190.0	195.0	194.0	191.0	184.0	177.0	170.0	163.0	158.0	153.0	150.0	147.0	144.0	142.0	141.0	140.0	140.0	140.0	140.0	140.0	139.0	137.0	134.0	130.0	126.0	121.0	116.0	111.0	105.0	100.0	96.0	92.0	88.0	84.0	82.0	79.0	77.0	75.0	74.0	72.0	71.0	69.0	68.0	67.0	66.0	66.0	65.0	64.0	63.0	62.0	61.0	60.0	60.0	59.0	58.0	58.0	57.0	56.0	56.0	55.0	54.0	53.0	52.0	52.0	53.0	57.0	65.0	78.0	95.0	116.0	137.0	157.0	174.0	185.0	191.0	192.0	189.0	184.0	177.0	170.0	164.0	159.0	154.0	151.0	147.0	144.0	140.0	136.0	132.0	128.0	126.0	123.0	121.0	119.0	116.0	114.0	110.0	107.0	103.0	99.0	94.0	89.0	85.0	80.0	76.0	72.0	69.0	66.0	64.0	62.0	60.0	58.0	57.0	57.0	57.0	58.0	58.0	59.0	59.0	58.0	58.0	57.0	57.0	56.0	56.0	55.0	55.0	55.0	55.0	55.0	55.0	55.0	54.0	53.0	51.0	49.0	48.0	47.0	47.0	48.0	50.0	53.0	58.0	67.0	81.0	100.0	124.0	147.0	170.0	189.0	202.0	208.0	210.0	207.0	201.0	194.0	188.0	182.0	177.0	174.0	172.0	169.0	166.0	162.0	158.0	155.0	152.0	150.0	149.0	148.0	147.0	145.0	143.0	139.0	135.0	129.0	124.0	118.0	112.0	105.0	99.0	94.0	89.0	84.0	79.0	75.0	72.0	69.0	67.0	66.0	64.0	63.0	62.0	61.0	60.0	58.0	57.0	55.0	54.0	52.0	51.0	50.0	49.0	48.0	47.0	46.0	45.0	45.0	45.0	45.0	45.0	46.0	46.0	46.0	46.0	47.0	47.0	48.0	51.0	57.0	68.0	83.0	102.0	124.0	145.0	164.0	179.0	189.0	193.0	193.0	189.0	182.0	174.0	167.0	162.0	158.0	155.0	153.0	150.0	147.0	142.0	138.0	134.0	130.0	127.0	125.0	123.0	120.0	117.0	113.0	109.0	105.0	101.0	97.0	92.0	88.0	84.0	80.0	77.0	73.0	70.0	67.0	64.0	62.0	59.0	56.0	53.0	50.0	48.0	45.0	43.0	42.0	41.0	41.0	40.0	40.0	39.0	38.0	38.0	38.0	38.0	38.0	39.0	39.0	40.0	41.0	43.0	43.0	44.0	44.0	45.0	45.0	46.0	49.0	54.0	64.0	78.0	96.0	118.0	139.0	160.0	176.0	188.0	193.0	194.0	191.0	186.0	179.0	171.0	165.0	159.0	155.0	151.0	147.0	144.0	141.0	139.0	137.0	136.0	135.0	135.0	134.0	133.0	131.0	128.0	125.0	120.0	116.0	110.0	105.0	100.0	95.0	91.0	87.0	83.0	80.0	77.0	74.0	72.0	70.0	69.0	68.0	67.0	67.0	66.0	65.0	64.0	64.0	63.0	62.0	61.0	61.0	60.0	59.0	58.0	58.0	57.0	56.0	56.0	55.0	55.0	54.0	53.0	53.0	52.0	54.0	57.0	64.0	77.0	93.0	114.0	135.0	155.0	173.0	185.0	192.0	194.0	192.0	186.0	179.0	172.0	166.0	161.0	156.0	153.0	149.0	145.0	141.0	137.0	133.0	129.0	127.0	125.0	123.0	121.0	119.0	116.0	112.0	108.0	104.0	99.0	94.0	89.0	84.0	80.0	77.0	73.0	70.0	68.0	66.0	64.0	62.0	61.0	60.0	59.0	59.0	59.0	59.0	58.0	58.0	58.0	58.0	57.0	57.0	56.0	56.0	55.0	55.0	54.0	54.0	54.0	54.0	54.0	54.0	54.0	55.0	55.0	55.0	56.0	56.0	56.0	56.0	56.0	57.0	60.0	67.0	78.0	94.0	114.0	135.0	157.0	175.0	188.0	195.0	197.0	195.0	189.0	183.0	176.0	170.0	165.0	161.0	158.0	156.0	153.0	150.0	147.0	143.0	140.0	137.0	135.0	133.0	130.0	128.0	126.0	123.0	119.0	114.0	109.0	104.0	99.0	94.0	90.0	86.0	82.0	79.0	75.0	73.0	70.0	68.0	66.0	65.0	64.0	62.0	62.0	61.0	60.0	60.0	59.0	59.0	58.0	57.0	57.0	56.0	56.0	56.0	55.0	55.0	55.0	55.0	55.0	55.0	55.0	56.0	56.0	57.0	57.0	58.0	59.0	59.0	60.0	60.0	60.0	60.0	60.0	60.0	61.0	63.0	69.0	78.0	93.0	111.0	132.0	153.0	172.0	187.0	196.0	200.0	199.0	194.0	188.0	181.0	174.0	168.0	164.0	160.0	157.0	154.0	151.0	148.0	145.0	142.0	140.0	138.0	137.0	135.0	133.0	130.0	127.0	123.0	119.0	114.0	109.0	104.0	99.0	95.0	91.0	87.0	83.0	80.0	77.0	75.0	73.0	71.0	69.0	68.0	67.0	66.0	65.0	65.0	64.0	63.0	63.0	62.0	61.0	61.0	60.0	59.0	58.0	57.0	56.0	56.0	55.0	55.0	55.0	54.0	54.0	54.0	54.0	55.0	55.0	55.0	55.0	55.0	55.0	55.0	55.0	57.0	61.0	69.0	81.0	98.0	118.0	138.0	157.0	173.0	183.0	189.0	189.0	186.0	181.0	174.0	167.0	161.0	156.0	151.0	148.0	145.0	142.0	139.0	136.0	133.0	131.0	130.0	128.0	127.0	127.0	125.0	122.0	61.0	60.0	60.0	59.0	59.0	59.0	59.0	59.0	59.0	59.0	59.0	60.0	60.0	60.0	60.0	60.0	60.0	60.0	60.0	61.0	65.0	72.0	84.0	100.0	121.0	141.0	162.0	180.0	192.0	200.0	202.0	200.0	195.0	188.0	181.0	175.0	169.0	165.0	162.0	159.0	156.0	153.0	149.0	146.0	143.0	140.0	138.0	137.0	135.0	133.0	130.0	127.0	123.0	119.0	114.0	109.0	103.0	99.0	94.0	90.0	86.0	83.0	80.0	77.0	75.0	73.0	71.0	70.0	69.0	68.0	67.0	67.0	67.0	66.0	66.0	65.0	65.0	64.0	64.0	63.0	62.0	62.0	61.0	60.0	60.0	59.0	59.0	59.0	58.0	58.0	58.0	58.0	59.0	59.0	59.0	60.0	60.0	61.0	61.0	61.0	61.0	61.0	62.0	64.0	69.0	79.0	93.0	111.0	132.0	154.0	173.0	189.0	199.0	204.0	204.0	200.0	194.0	186.0	178.0	171.0	165.0	161.0	157.0	154.0	151.0	148.0	145.0	143.0	141.0	139.0	138.0	136.0	134.0	132.0	128.0	125.0	121.0	116.0	111.0	106.0	102.0	97.0	93.0	88.0	85.0	81.0	78.0	75.0	72.0	70.0	69.0	67.0	66.0	66.0	65.0	64.0	64.0	63.0	63.0	62.0	62.0	61.0	60.0	59.0	59.0	58.0	57.0	56.0	56.0	55.0	55.0	55.0	55.0	54.0	54.0	55.0	54.0	54.0	54.0	54.0	53.0	53.0	55.0	59.0	66.0	78.0	95.0	114.0	135.0	155.0	172.0	184.0	190.0	191.0	189.0	183.0	176.0	168.0	161.0	154.0	149.0	145.0	141.0	138.0	135.0	132.0	129.0	128.0	127.0	127.0	126.0	125.0	124.0	122.0	119.0	115.0	111.0	106.0	101.0	96.0	91.0	87.0	83.0	79.0	76.0	73.0	71.0	69.0	67.0	66.0	65.0	65.0	64.0	64.0	64.0	64.0	64.0	64.0	64.0	63.0	63.0	62.0	62.0	61.0	61.0	60.0	60.0	59.0	59.0	59.0	58.0	58.0	58.0	58.0	58.0	59.0	59.0	60.0	61.0	62.0	62.0	62.0	62.0	63.0	63.0	66.0	71.0	80.0	95.0	114.0	135.0	158.0	179.0	195.0	206.0	211.0	212.0	208.0	201.0	193.0	185.0	178.0	172.0	168.0	164.0	161.0	157.0	154.0	150.0	147.0	144.0	142.0	141.0	139.0	137.0	134.0	131.0	127.0	123.0	118.0	113.0	107.0	102.0	97.0	92.0	88.0	84.0	80.0	77.0	74.0	72.0	70.0	69.0	67.0	67.0	66.0	65.0	65.0	64.0	64.0	64.0	63.0	63.0	62.0	61.0	61.0	60.0	59.0	58.0	58.0	57.0	57.0	56.0	56.0	56.0	56.0	56.0	56.0	56.0	57.0	58.0	58.0	59.0	59.0	60.0	60.0	60.0	61.0	61.0	62.0	64.0	69.0	78.0	92.0	111.0	132.0	155.0	175.0	191.0	202.0	208.0	208.0	204.0	197.0	189.0	181.0	173.0	167.0	162.0	157.0	154.0	150.0	147.0	145.0	142.0	140.0	139.0	138.0	137.0	135.0	132.0	129.0	126.0	121.0	116.0	111.0	105.0	100.0	95.0	90.0	86.0	82.0	78.0	75.0	72.0	69.0	67.0	65.0	64.0	63.0	62.0	61.0	60.0	60.0	59.0	59.0	58.0	58.0	57.0	56.0	56.0	55.0	55.0	54.0	54.0	54.0	53.0	53.0	53.0	53.0	53.0	54.0	54.0	54.0	55.0	55.0	55.0	55.0	55.0	55.0	56.0	60.0	67.0	80.0	97.0	118.0	140.0	162.0	181.0	195.0	203.0	205.0	203.0	198.0	190.0	182.0	175.0	168.0	162.0	158.0	154.0	150.0	147.0	143.0	140.0	137.0	134.0	133.0	131.0	130.0	128.0	126.0	123.0	118.0	114.0	108.0	103.0	98.0	93.0	88.0	83.0	79.0	75.0	72.0	69.0	67.0	65.0	64.0	63.0	62.0	62.0	62.0	62.0	62.0	62.0	61.0	61.0	61.0	60.0	59.0	59.0	58.0	57.0	57.0	56.0	56.0	55.0	55.0	55.0	54.0	55.0	55.0	55.0	55.0	56.0	57.0	57.0	58.0	58.0	59.0	59.0	59.0	59.0	60.0	62.0	68.0	78.0	93.0	114.0	136.0	160.0	182.0	200.0	211.0	217.0	217.0	213.0	206.0	198.0	189.0	182.0	176.0	171.0	168.0	164.0	161.0	157.0	153.0	149.0	146.0	143.0	140.0	138.0	136.0	133.0	130.0	127.0	123.0	118.0	112.0	106.0	100.0	95.0	90.0	85.0	81.0	77.0	74.0	71.0	69.0	67.0	65.0	64.0	63.0	62.0	62.0	61.0	61.0	61.0	61.0	60.0	60.0	59.0	58.0	58.0	57.0	57.0	56.0	55.0	55.0	55.0	54.0	54.0	54.0	54.0	54.0	54.0	54.0	55.0	55.0	55.0	55.0	56.0	56.0	56.0	56.0	57.0	58.0	63.0	71.0	84.0	101.0	122.0	144.0	165.0	182.0	194.0	201.0	202.0	198.0	192.0	184.0	175.0	167.0	159.0	153.0	148.0	143.0	139.0	135.0	132.0	130.0	129.0	129.0	129.0	128.0	127.0	126.0	123.0	119.0	114.0	108.0	103.0	98.0	92.0	87.0	83.0	78.0	75.0	71.0	69.0	66.0	64.0	63.0	61.0	61.0	60.0	60.0	60.0	60.0	60.0	60.0	60.0	60.0	59.0	59.0	58.0	58.0	57.0	57.0	56.0	56.0	55.0	55.0	55.0	55.0	55.0	55.0	55.0	55.0	55.0	55.0	55.0	55.0	55.0	57.0	61.0	69.0	82.0	100.0	123.0	148.0	172.0	193.0	209.0	219.0	223.0	221.0	215.0	207.0	199.0	190.0	183.0	178.0	174.0	170.0	167.0	163.0	158.0	153.0	148.0	144.0	140.0	137.0	134.0	131.0	128.0	125.0	120.0	115.0	109.0	104.0	98.0	92.0	87.0	82.0	78.0	74.0	70.0	67.0	65.0	63.0	61.0	60.0	59.0	59.0	58.0	58.0	58.0	58.0	57.0	57.0	56.0	56.0	55.0	55.0	54.0	53.0	52.0	52.0	51.0	51.0	50.0	50.0	50.0	50.0	50.0	50.0	51.0	52.0	53.0	54.0	54.0	55.0	55.0	56.0	56.0	56.0	56.0	57.0	61.0	68.0	81.0	100.0	123.0	148.0	173.0	195.0	212.0	222.0	226.0	224.0	218.0	210.0	201.0	193.0	185.0	180.0	176.0	172.0	168.0	164.0	159.0	155.0	150.0	146.0	143.0	140.0	137.0	134.0	130.0	127.0	123.0	118.0	112.0	106.0	101.0	95.0	90.0	85.0	80.0	76.0	73.0	69.0	67.0	65.0	63.0	62.0	61.0	60.0	60.0	59.0	59.0	59.0	58.0	58.0	57.0	57.0	56.0	55.0	55.0	54.0	53.0	52.0	52.0	51.0	51.0	51.0	51.0	51.0	51.0	51.0	52.0	52.0	53.0	54.0	55.0	55.0	56.0	56.0	57.0	57.0	57.0	57.0	58.0	62.0	69.0	81.0	98.0	120.0	143.0	167.0	187.0	201.0	209.0	211.0	208.0	201.0	192.0	183.0	174.0	167.0	160.0	155.0	150.0	146.0	141.0	138.0	135.0	132.0	131.0	130.0	129.0	127.0	126.0	122.0	118.0	113.0	107.0	102.0	96.0	90.0	85.0	80.0	76.0	72.0	69.0	66.0	63.0	61.0	60.0	59.0	58.0	58.0	58.0	58.0	58.0	58.0	58.0	58.0	57.0	57.0	57.0	56.0	55.0	55.0	54.0	54.0	53.0	52.0	52.0	52.0	51.0	51.0	51.0	51.0	50.0	51.0	51.0	52.0	52.0	53.0	53.0	54.0	54.0	54.0	54.0	56.0	59.0	67.0	80.0	99.0	124.0	150.0	177.0	201.0	219.0	230.0	235.0	234.0	228.0	220.0	211.0	202.0	194.0	188.0	184.0	180.0	176.0	171.0	166.0	161.0	156.0	151.0	147.0	143.0	140.0	136.0	132.0	128.0	125.0	119.0	114.0	108.0	101.0	96.0	90.0	85.0	80.0	76.0	72.0	68.0	66.0	63.0	61.0	60.0	58.0	57.0	56.0	56.0	55.0	55.0	54.0	54.0	54.0	53.0	52.0	51.0	51.0	50.0	49.0	48.0	48.0	47.0	47.0	46.0	46.0	46.0	46.0	46.0	46.0	46.0	46.0	47.0	48.0	49.0	50.0	50.0	51.0	52.0	52.0	52.0	52.0	53.0	54.0	57.0	63.0	75.0	93.0	117.0	143.0	171.0	197.0	217.0	230.0	237.0	236.0	231.0	222.0	212.0	202.0	193.0	186.0	181.0	177.0	173.0	169.0	164.0	160.0	155.0	151.0	147.0	144.0	141.0	138.0	134.0	130.0	127.0	121.0	116.0	110.0	104.0	98.0	92.0	87.0	82.0	78.0	75.0	72.0	69.0	67.0	65.0	63.0	62.0	61.0	60.0	60.0	59.0	59.0	58.0	58.0	57.0	57.0	56.0	55.0	55.0	54.0	53.0	53.0	52.0	51.0	51.0	50.0	50.0	50.0	50.0	50.0	50.0	51.0	52.0	52.0	53.0	54.0	54.0	55.0	55.0	56.0	56.0	56.0	56.0	56.0	57.0	61.0	69.0	82.0	101.0	125.0	150.0	175.0	196.0	212.0	220.0	222.0	218.0	210.0	200.0	189.0	179.0	169.0	161.0	154.0	149.0	144.0	139.0	136.0	133.0	132.0	131.0	131.0	131.0	130.0	128.0	126.0	122.0	117.0	111.0	105.0	99.0	93.0	88.0	82.0	77.0	73.0	69.0	65.0	63.0	60.0	59.0	58.0	57.0	56.0	56.0	56.0	57.0	57.0	57.0	57.0	57.0	57.0	56.0	56.0	55.0	55.0	54.0	53.0	52.0	51.0	50.0	50.0	49.0	48.0	48.0	48.0	48.0	49.0	49.0	49.0	49.0	49.0	49.0	50.0	50.0	53.0	59.0	70.0	87.0	111.0	138.0	167.0	195.0	217.0	233.0	242.0	243.0	239.0	231.0	221.0	210.0	201.0	193.0	186.0	182.0	178.0	173.0	169.0	163.0	158.0	153.0	148.0	145.0	141.0	138.0	134.0	130.0	127.0	122.0	116.0	110.0	104.0	98.0	92.0	86.0	81.0	76.0	72.0	69.0	66.0	63.0	60.0	59.0	57.0	56.0	55.0	55.0	55.0	55.0	54.0	54.0	54.0	53.0	53.0	52.0	51.0	51.0	50.0	49.0	49.0	48.0	47.0	47.0	46.0	46.0	45.0	45.0	45.0	46.0	46.0	47.0	47.0	48.0	49.0	50.0	50.0	50.0	50.0	50.0	51.0	53.0	58.0	69.0	85.0	109.0	135.0	165.0	193.0	217.0	233.0	242.0	244.0	240.0	232.0	221.0	211.0	201.0	193.0	187.0	182.0	178.0	174.0	169.0	164.0	159.0	154.0	150.0	147.0	144.0	140.0	137.0	133.0	128.0	124.0	118.0	112.0	106.0	100.0	94.0	89.0	84.0	80.0	76.0	72.0	68.0	65.0	63.0	61.0	60.0	59.0	58.0	58.0	58.0	57.0	57.0	57.0	56.0	56.0	55.0	55.0	54.0	53.0	52.0	51.0	50.0	50.0	49.0	49.0	49.0	49.0	49.0	49.0	50.0	50.0	51.0	51.0	51.0	52.0	52.0	51.0	51.0	51.0	52.0	55.0	61.0	72.0	90.0	113.0	138.0	164.0	188.0	205.0	216.0	220.0	218.0	211.0	202.0	191.0	180.0	170.0	162.0	155.0	149.0	143.0	138.0	134.0	131.0	128.0	127.0	127.0	127.0	127.0	125.0	122.0	118.0	113.0	108.0	101.0	95.0	89.0	83.0	78.0	73.0	69.0	65.0	62.0	59.0	57.0	55.0	54.0	53.0	53.0	53.0	53.0	54.0	54.0	54.0	55.0	55.0	54.0	54.0	53.0	52.0	51.0	50.0	50.0	49.0	48.0	47.0	46.0	46.0	46.0	46.0	46.0	46.0	47.0	47.0	47.0	48.0	48.0	48.0	49.0	51.0	55.0	65.0	80.0	102.0	129.0	159.0	187.0	212.0	229.0	238.0	240.0	236.0	227.0	216.0	205.0	196.0	188.0	182.0	178.0	176.0	173.0	169.0	164.0	159.0	153.0	148.0	143.0	139.0	135.0	132.0	128.0	125.0	120.0	116.0	111.0	107.0	102.0	97.0	92.0	87.0	82.0	78.0	74.0	70.0	67.0	64.0	62.0	60.0	58.0	56.0	54.0	53.0	51.0	50.0	49.0	48.0	46.0	45.0	44.0	42.0	41.0	40.0	39.0	38.0	37.0	37.0	36.0	35.0	35.0	34.0	34.0	35.0	35.0	35.0	34.0	34.0	34.0	34.0	34.0	35.0	37.0	42.0	52.0	67.0	89.0	117.0	146.0	176.0	202.0	222.0	234.0	239.0	237.0	231.0	222.0	212.0	203.0	195.0	189.0	185.0	181.0	176.0	172.0	167.0	161.0	156.0	151.0	147.0	144.0	140.0	137.0	132.0	128.0	123.0	118.0	112.0	106.0	100.0	94.0	88.0	83.0	79.0	75.0	72.0	69.0	67.0	65.0	64.0	63.0	61.0	61.0	60.0	60.0	60.0	60.0	60.0	59.0	59.0	58.0	57.0	57.0	56.0	55.0	55.0	54.0	54.0	53.0	53.0	53.0	53.0	53.0	52.0	52.0	52.0	52.0	52.0	51.0	50.0	49.0	50.0	53.0	61.0	76.0	97.0	123.0	151.0	179.0	202.0	218.0	228.0	229.0	225.0	217.0	206.0	194.0	183.0	174.0	166.0	159.0	153.0	147.0	141.0	136.0	131.0	127.0	126.0	124.0	123.0	121.0	119.0	117.0	113.0	108.0	103.0	97.0	90.0	84.0	78.0	72.0	67.0	62.0	58.0	55.0	52.0	50.0	48.0	47.0	47.0	46.0	45.0	45.0	44.0	44.0	44.0	44.0	45.0	44.0	44.0	43.0	42.0	41.0	40.0	39.0	38.0	38.0	37.0	36.0	35.0	34.0	33.0	33.0	32.0	33.0	33.0	34.0	34.0	36.0	38.0	43.0	53.0	69.0	93.0	123.0	155.0	187.0	215.0	236.0	249.0	253.0	251.0	244.0	234.0	223.0	213.0	205.0	198.0	193.0	188.0	183.0	178.0	171.0	165.0	159.0	153.0	149.0	145.0	141.0	138.0	134.0	129.0	125.0	118.0	112.0	105.0	98.0	92.0	86.0	80.0	75.0	71.0	66.0	63.0	60.0	57.0	55.0	54.0	53.0	52.0	51.0	50.0	49.0	48.0	47.0	46.0	45.0	44.0	43.0	41.0	40.0	38.0	37.0	35.0	34.0	32.0	31.0	31.0	30.0	30.0	30.0	30.0	30.0	31.0	31.0	31.0	31.0	31.0	32.0	34.0	38.0	49.0	66.0	90.0	120.0	151.0	181.0	206.0	224.0	234.0	237.0	232.0	224.0	212.0	200.0	189.0	180.0	173.0	167.0	162.0	158.0	153.0	149.0	144.0	140.0	136.0	133.0	130.0	127.0	124.0	119.0	114.0	108.0	101.0	95.0	88.0	82.0	76.0	70.0	65.0	61.0	57.0	53.0	50.0	48.0	46.0	45.0	45.0	44.0	45.0	45.0	46.0	47.0	48.0	48.0	49.0	49.0	49.0	49.0	49.0	48.0	48.0	47.0	47.0	46.0	46.0	45.0	45.0	44.0	44.0	43.0	43.0	42.0	42.0	42.0	44.0	49.0	60.0	78.0	102.0	130.0	161.0	191.0	215.0	233.0	242.0	243.0	238.0	228.0	216.0	203.0	192.0	181.0	172.0	165.0	158.0	152.0	146.0	141.0	136.0	132.0	130.0	128.0	127.0	126.0	123.0	120.0	115.0	110.0	104.0	97.0	91.0	84.0	77.0	71.0	66.0	61.0	57.0	53.0	51.0	49.0	48.0	47.0	47.0	47.0	47.0	48.0	48.0	49.0	50.0	50.0	50.0	50.0	50.0	49.0	48.0	47.0	46.0	45.0	44.0	43.0	42.0	42.0	41.0	41.0	41.0	42.0	42.0	42.0	42.0	42.0	42.0	42.0	43.0	44.0	48.0	58.0	73.0	97.0	127.0	159.0	193.0	222.0	244.0	254.0	254.0	254.0	253.0	241.0	228.0	215.0	203.0	194.0	186.0	180.0	174.0	169.0	163.0	158.0	153.0	149.0	145.0	142.0	139.0	136.0	132.0	128.0	123.0	117.0	111.0	103.0	96.0	89.0	83.0	77.0	71.0	67.0	62.0	59.0	56.0	54.0	52.0	50.0	50.0	49.0	49.0	49.0	50.0	50.0	50.0	50.0	49.0	49.0	48.0	47.0	45.0	44.0	43.0	41.0	40.0	38.0	37.0	36.0	34.0	33.0	33.0	32.0	31.0	31.0	30.0	31.0	31.0	31.0	32.0	32.0	33.0	34.0	35.0	37.0	41.0	48.0	61.0	81.0	109.0	142.0	177.0	211.0	238.0	254.0	254.0	254.0	254.0	254.0	241.0	226.0	210.0	196.0	184.0	175.0	167.0	161.0	156.0	152.0	149.0	148.0	147.0	148.0	149.0	149.0	148.0	147.0	143.0	139.0	133.0	127.0	120.0	113.0	106.0	99.0	93.0	88.0	83.0	79.0	74.0	71.0	68.0	65.0	63.0	61.0	59.0	57.0	55.0	53.0	51.0	49.0	47.0	46.0	44.0	43.0	42.0	41.0	40.0	39.0	38.0	38.0	38.0	38.0	39.0	39.0	38.0	38.0	37.0	36.0	34.0	33.0	32.0	32.0	34.0	42.0	56.0	78.0	107.0	139.0	172.0	202.0	225.0	240.0	246.0	245.0	237.0	226.0	213.0	200.0	187.0	176.0	167.0	159.0	153.0	147.0	141.0	136.0	132.0	128.0	127.0	125.0	124.0	123.0	121.0	118.0	114.0	109.0	103.0	97.0	90.0	83.0	75.0	67.0	60.0	54.0	48.0	44.0	41.0	39.0	37.0	36.0	36.0	36.0	36.0	37.0	37.0	38.0	38.0	39.0	39.0	40.0	40.0	40.0	41.0	42.0	43.0	43.0	44.0	45.0	45.0	46.0	46.0	47.0	47.0	48.0	48.0	49.0	49.0	49.0	49.0	50.0	50.0	50.0	51.0	53.0	58.0	68.0	86.0	110.0	140.0	173.0	205.0	232.0	251.0	254.0	254.0	254.0	253.0	242.0	230.0	219.0	209.0	201.0	194.0	188.0	183.0	179.0	175.0	172.0	170.0	169.0	169.0	169.0	169.0	168.0	167.0	164.0	161.0	157.0	152.0	147.0	141.0	135.0	130.0	126.0	121.0	117.0	112.0	108.0	105.0	102.0	99.0	96.0	95.0	93.0	92.0	91.0	89.0	88.0	87.0	86.0	85.0	83.0	82.0	80.0	77.0	75.0	71.0	67.0	62.0	55.0	47.0	39.0	30.0	20.0	10.0	0.0	0.0	0.0	0.0	0.0	0.0	0.0	0.0	0.0	0.0	0.0	0.0	0.0	0.0	0.0	5.0	31.0	63.0	98.0	131.0	159.0	180.0	192.0	196.0	194.0	186.0	176.0	166.0	155.0	147.0	140.0	134.0	129.0	127.0	124.0	122.0	122.0	124.0	126.0	127.0	129.0	130.0	129.0	127.0	125.0	120.0	114.0	108.0	102.0	95.0	89.0	83.0	78.0	73.0	69.0	66.0	63.0	61.0	60.0	59.0	58.0	58.0	58.0	59.0	59.0	60.0	60.0	61.0	61.0	61.0	60.0	60.0	59.0	58.0	56.0	54.0	52.0	51.0	49.0	48.0	46.0	46.0	45.0	45.0	45.0	45.0	45.0	45.0	45.0	45.0	45.0	47.0	51.0	62.0	79.0	105.0	136.0	172.0	206.0	236.0	254.0	254.0	254.0	254.0	254.0	252.0	238.0	225.0	213.0	203.0	196.0	189.0	184.0	178.0	171.0	165.0	160.0	156.0	152.0	149.0	147.0	144.0	140.0	135.0	130.0	124.0	118.0	111.0	103.0	97.0	90.0	84.0	78.0	72.0	68.0	63.0	60.0	57.0	54.0	52.0	50.0	49.0	48.0	48.0	48.0	48.0	48.0	48.0	48.0	47.0	47.0	46.0	45.0	44.0	43.0	42.0	41.0	40.0	39.0	38.0	38.0	37.0	37.0	37.0	37.0	37.0	37.0	38.0	39.0	40.0	40.0	41.0	41.0	41.0	42.0	42.0	45.0	50.0	62.0	81.0	108.0	140.0	176.0	209.0	237.0	254.0	254.0	254.0	254.0	254.0	244.0	231.0	218.0	206.0	197.0	189.0	183.0	178.0	172.0	167.0	162.0	158.0	154.0	152.0	149.0	146.0	143.0	138.0	133.0	127.0	122.0	114.0	107.0	100.0	93.0	86.0	80.0	75.0	70.0	66.0	62.0	59.0	57.0	55.0	53.0	52.0	52.0	51.0	51.0	51.0	52.0	52.0	52.0	52.0	51.0	51.0	50.0	49.0	48.0	47.0	46.0	45.0	44.0	43.0	42.0	41.0	41.0	41.0	41.0	41.0	42.0	43.0	44.0	44.0	45.0	45.0	44.0	44.0	44.0	44.0	46.0	52.0	63.0	83.0	109.0	139.0	171.0	201.0	225.0	241.0	249.0	249.0	242.0	232.0	218.0	204.0	191.0	179.0	169.0	161.0	154.0	148.0	143.0	139.0	136.0	135.0	135.0	134.0	134.0	132.0	130.0	127.0	122.0	116.0	110.0	102.0	95.0	88.0	81.0	74.0	68.0	62.0	58.0	54.0	51.0	48.0	47.0	45.0	45.0	45.0	45.0	45.0	46.0	47.0	47.0	47.0	47.0	47.0	47.0	46.0	45.0	44.0	43.0	42.0	41.0	40.0	39.0	38.0	37.0	37.0	37.0	37.0	37.0	38.0	38.0	39.0	40.0	40.0	41.0	41.0	42.0	45.0	51.0	64.0	85.0	113.0	146.0	183.0	217.0	245.0	254.0	254.0	254.0	254.0	254.0	248.0	235.0	222.0	211.0	202.0	195.0	189.0	183.0	177.0	171.0	164.0	158.0	153.0	149.0	145.0	142.0	138.0	133.0	128.0	123.0	116.0	109.0	102.0	94.0	87.0	80.0	74.0	68.0	63.0	59.0	56.0	53.0	50.0	48.0	47.0	46.0	46.0	45.0	45.0	45.0	45.0	45.0	45.0	44.0	44.0	43.0	42.0	41.0	40.0	39.0	37.0	36.0	35.0	34.0	33.0	33.0	32.0	32.0	32.0	32.0	33.0	33.0	34.0	35.0	37.0	38.0	39.0	40.0	40.0	40.0	40.0	41.0	43.0	48.0	59.0	77.0	104.0	136.0	172.0	208.0	238.0	254.0	254.0	254.0	254.0	254.0	251.0	237.0	223.0	211.0	201.0	194.0	187.0	181.0	175.0	170.0	164.0	160.0	156.0	152.0	149.0	146.0	143.0	139.0	134.0	128.0	123.0	116.0	108.0	101.0	94.0	87.0	81.0	75.0	70.0	65.0	61.0	58.0	55.0	53.0	51.0	50.0	50.0	50.0	50.0	50.0	51.0	51.0	51.0	51.0	51.0	50.0	49.0	48.0	47.0	46.0	45.0	44.0	43.0	42.0	41.0	40.0	40.0	39.0	39.0	39.0	39.0	40.0	40.0	41.0	41.0	41.0	41.0	40.0	40.0	40.0	40.0	43.0	51.0	65.0	87.0	116.0	148.0	181.0	211.0	234.0	249.0	254.0	252.0	244.0	232.0	217.0	202.0	188.0	176.0	166.0	157.0	150.0	144.0	139.0	136.0	134.0	133.0	133.0	134.0	133.0	132.0	130.0	127.0	122.0	115.0	108.0	100.0	93.0	85.0	77.0	71.0	65.0	59.0	55.0	51.0	48.0	45.0	44.0	42.0	42.0	42.0	42.0	43.0	44.0	45.0	46.0	47.0	47.0	48.0	47.0	47.0	46.0	45.0	44.0	43.0	42.0	41.0	40.0	39.0	38.0	38.0	38.0	38.0	38.0	39.0	39.0	40.0	41.0	42.0	43.0	43.0	44.0	44.0	45.0	48.0	55.0	69.0	91.0	121.0	157.0	195.0	231.0	254.0	254.0	254.0	254.0	254.0	254.0	254.0	245.0	231.0	219.0	210.0	202.0	195.0	189.0	183.0	177.0	170.0	165.0	160.0	155.0	151.0	147.0	143.0	138.0	133.0	127.0	120.0	113.0	106.0	99.0	92.0	85.0	79.0	73.0	67.0	63.0	59.0	55.0	53.0	51.0	49.0	48.0	48.0	48.0	48.0	48.0	48.0	49.0	49.0	48.0	48.0	47.0	47.0	46.0	44.0	43.0	42.0	41.0	39.0	38.0	37.0	36.0	35.0	35.0	34.0	34.0	34.0	34.0	34.0	35.0	35.0	36.0	36.0	37.0	37.0	37.0	37.0	37.0	37.0	39.0	44.0	54.0	72.0	99.0	132.0	170.0	207.0	239.0	254.0	254.0	254.0	254.0	254.0	254.0	242.0	227.0	215.0	204.0	196.0	190.0	185.0	179.0	174.0	168.0	163.0	159.0	155.0	151.0	148.0	144.0	139.0	134.0	128.0	122.0	115.0	107.0	99.0	92.0	84.0	78.0	72.0	67.0	62.0	59.0	55.0	53.0	51.0	49.0	48.0	48.0	47.0	47.0	48.0	48.0	48.0	48.0	48.0	47.0	46.0	44.0	43.0	41.0	40.0	40.0	39.0	38.0	38.0	37.0	37.0	36.0	36.0	36.0	36.0	37.0	37.0	38.0	39.0	40.0	41.0	42.0	43.0	43.0	43.0	43.0	43.0	44.0	47.0	53.0	67.0	87.0	115.0	147.0	181.0	212.0	237.0	253.0	254.0	254.0	251.0	48.0	45.0	43.0	42.0	42.0	42.0	42.0	43.0	44.0	45.0	46.0	47.0	48.0	48.0	48.0	48.0	47.0	46.0	45.0	44.0	43.0	42.0	40.0	39.0	39.0	38.0	38.0	38.0	38.0	39.0	39.0	40.0	41.0	42.0	42.0	43.0	43.0	45.0	50.0	60.0	78.0	104.0	137.0	175.0	212.0	245.0	254.0	254.0	254.0	254.0	254.0	254.0	250.0	235.0	222.0	211.0	203.0	196.0	191.0	185.0	180.0	174.0	168.0	163.0	158.0	154.0	151.0	147.0	142.0	137.0	132.0	126.0	118.0	110.0	102.0	93.0	86.0	79.0	72.0	66.0	61.0	57.0	53.0	50.0	47.0	45.0	43.0	42.0	41.0	41.0	40.0	40.0	40.0	39.0	39.0	38.0	37.0	36.0	34.0	33.0	31.0	30.0	28.0	26.0	25.0	24.0	23.0	23.0	22.0	23.0	24.0	25.0	26.0	28.0	29.0	31.0	32.0	33.0	34.0	35.0	36.0	37.0	41.0	50.0	66.0	90.0	122.0	157.0	194.0	227.0	253.0	254.0	254.0	254.0	254.0	254.0	242.0	227.0	213.0	202.0	193.0	185.0	179.0	173.0	167.0	161.0	156.0	152.0	149.0	146.0	143.0	140.0	136.0	131.0	127.0	120.0	113.0	106.0	98.0	91.0	84.0	78.0	72.0	67.0	62.0	58.0	54.0	52.0	50.0	48.0	47.0	47.0	46.0	46.0	46.0	47.0	47.0	46.0	46.0	45.0	45.0	43.0	42.0	41.0	39.0	38.0	37.0	35.0	35.0	34.0	33.0	33.0	33.0	34.0	34.0	34.0	33.0	33.0	33.0	32.0	33.0	35.0	43.0	56.0	78.0	108.0	142.0	178.0	212.0	239.0	254.0	254.0	254.0	254.0	246.0	231.0	217.0	203.0	192.0	183.0	175.0	169.0	163.0	157.0	151.0	146.0	141.0	137.0	134.0	132.0	129.0	127.0	123.0	118.0	112.0	105.0	98.0	91.0	84.0	77.0	70.0	65.0	59.0	55.0	51.0	47.0	44.0	42.0	41.0	40.0	40.0	40.0	40.0	40.0	41.0	41.0	42.0	42.0	41.0	41.0	40.0	40.0	39.0	37.0	36.0	35.0	34.0	34.0	33.0	33.0	32.0	32.0	33.0	33.0	34.0	35.0	36.0	37.0	38.0	39.0	40.0	40.0	40.0	41.0	44.0	51.0	66.0	89.0	120.0	157.0	195.0	231.0	254.0	254.0	254.0	254.0	254.0	254.0	254.0	245.0	232.0	221.0	212.0	204.0	197.0	190.0	183.0	176.0	169.0	163.0	158.0	154.0	150.0	146.0	141.0	136.0	129.0	123.0	115.0	106.0	97.0	88.0	79.0	72.0	65.0	58.0	53.0	48.0	45.0	42.0	40.0	38.0	38.0	38.0	38.0	38.0	38.0	39.0	39.0	39.0	39.0	38.0	38.0	38.0	37.0	37.0	37.0	36.0	36.0	36.0	36.0	36.0	36.0	36.0	36.0	36.0	37.0	37.0	37.0	38.0	38.0	39.0	39.0	39.0	39.0	40.0	40.0	43.0	49.0	62.0	82.0	111.0	144.0	180.0	214.0	242.0	254.0	254.0	254.0	254.0	253.0	239.0	223.0	208.0	195.0	185.0	176.0	169.0	163.0	157.0	151.0	147.0	143.0	141.0	139.0	138.0	136.0	133.0	129.0	125.0	118.0	112.0	104.0	97.0	90.0	83.0	77.0	70.0	65.0	60.0	55.0	51.0	48.0	46.0	44.0	43.0	42.0	42.0	43.0	43.0	44.0	44.0	45.0	45.0	45.0	45.0	44.0	44.0	43.0	42.0	40.0	39.0	39.0	38.0	37.0	37.0	36.0	36.0	36.0	36.0	35.0	34.0	33.0	32.0	32.0	36.0	46.0	64.0	90.0	124.0	160.0	197.0	229.0	252.0	254.0	254.0	254.0	253.0	239.0	224.0	209.0	197.0	187.0	178.0	171.0	165.0	159.0	153.0	147.0	142.0	139.0	136.0	134.0	131.0	129.0	127.0	122.0	116.0	110.0	102.0	94.0	86.0	78.0	71.0	64.0	58.0	53.0	48.0	44.0	41.0	39.0	38.0	37.0	37.0	37.0	38.0	38.0	39.0	40.0	40.0	41.0	40.0	40.0	40.0	39.0	38.0	38.0	37.0	36.0	35.0	35.0	34.0	34.0	35.0	35.0	36.0	37.0	38.0	38.0	39.0	39.0	39.0	39.0	39.0	41.0	46.0	59.0	79.0	108.0	143.0	182.0	218.0	249.0	254.0	254.0	254.0	254.0	254.0	250.0	233.0	218.0	204.0	193.0	185.0	178.0	171.0	165.0	158.0	152.0	146.0	142.0	138.0	134.0	131.0	127.0	124.0	118.0	112.0	106.0	98.0	91.0	83.0	76.0	69.0	63.0	57.0	53.0	49.0	46.0	44.0	42.0	41.0	40.0	40.0	41.0	42.0	43.0	44.0	45.0	45.0	46.0	47.0	47.0	47.0	46.0	45.0	44.0	43.0	42.0	41.0	40.0	39.0	39.0	39.0	39.0	39.0	40.0	41.0	41.0	42.0	43.0	43.0	44.0	44.0	44.0	44.0	44.0	47.0	55.0	70.0	93.0	124.0	159.0	196.0	229.0	254.0	254.0	254.0	254.0	254.0	254.0	237.0	220.0	204.0	190.0	178.0	169.0	161.0	154.0	149.0	144.0	141.0	140.0	139.0	139.0	139.0	137.0	134.0	129.0	125.0	118.0	110.0	101.0	93.0	85.0	77.0	70.0	64.0	58.0	54.0	49.0	46.0	43.0	42.0	40.0	40.0	40.0	40.0	40.0	41.0	41.0	42.0	42.0	42.0	42.0	41.0	41.0	39.0	38.0	37.0	35.0	34.0	33.0	32.0	31.0	30.0	30.0	29.0	29.0	29.0	28.0	28.0	28.0	29.0	33.0	42.0	60.0	87.0	121.0	160.0	200.0	236.0	254.0	254.0	254.0	254.0	254.0	254.0	244.0	228.0	214.0	202.0	193.0	186.0	179.0	173.0	166.0	160.0	153.0	148.0	144.0	140.0	136.0	133.0	129.0	125.0	119.0	113.0	106.0	98.0	90.0	82.0	75.0	68.0	61.0	55.0	49.0	44.0	40.0	37.0	35.0	33.0	32.0	32.0	32.0	33.0	34.0	34.0	35.0	36.0	36.0	36.0	36.0	35.0	34.0	33.0	32.0	31.0	30.0	29.0	28.0	28.0	27.0	27.0	28.0	28.0	29.0	29.0	30.0	31.0	31.0	31.0	31.0	31.0	32.0	37.0	47.0	65.0	93.0	128.0	169.0	210.0	245.0	254.0	254.0	254.0	254.0	254.0	254.0	249.0	232.0	218.0	206.0	196.0	188.0	181.0	175.0	168.0	162.0	156.0	151.0	148.0	145.0	142.0	139.0	135.0	130.0	125.0	119.0	112.0	104.0	96.0	89.0	82.0	75.0	69.0	63.0	58.0	54.0	51.0	48.0	46.0	45.0	44.0	44.0	44.0	44.0	45.0	45.0	45.0	46.0	46.0	45.0	45.0	44.0	43.0	42.0	41.0	40.0	39.0	38.0	37.0	36.0	35.0	34.0	34.0	34.0	33.0	33.0	33.0	33.0	32.0	32.0	32.0	34.0	40.0	52.0	72.0	100.0	133.0	170.0	205.0	234.0	254.0	254.0	254.0	254.0	244.0	228.0	211.0	195.0	181.0	168.0	158.0	150.0	142.0	136.0	131.0	128.0	127.0	127.0	127.0	127.0	127.0	126.0	123.0	119.0	113.0	106.0	99.0	91.0	83.0	75.0	68.0	61.0	55.0	50.0	45.0	42.0	39.0	37.0	36.0	35.0	35.0	36.0	36.0	37.0	38.0	39.0	39.0	40.0	40.0	40.0	39.0	38.0	37.0	36.0	35.0	34.0	33.0	32.0	31.0	31.0	31.0	30.0	31.0	31.0	31.0	31.0	31.0	31.0	31.0	33.0	39.0	52.0	74.0	105.0	143.0	184.0	224.0	254.0	254.0	254.0	254.0	254.0	254.0	254.0	249.0	234.0	220.0	209.0	200.0	193.0	186.0	179.0	172.0	165.0	158.0	153.0	149.0	145.0	141.0	138.0	133.0	128.0	123.0	117.0	109.0	102.0	94.0	86.0	78.0	71.0	65.0	59.0	54.0	49.0	45.0	42.0	39.0	37.0	36.0	36.0	36.0	37.0	38.0	39.0	39.0	40.0	40.0	40.0	40.0	39.0	38.0	37.0	36.0	34.0	33.0	32.0	31.0	31.0	30.0	30.0	30.0	30.0	30.0	31.0	31.0	31.0	31.0	31.0	32.0	34.0	41.0	56.0	78.0	110.0	147.0	187.0	225.0	254.0	254.0	254.0	254.0	254.0	254.0	251.0	234.0	219.0	206.0	195.0	187.0	180.0	174.0	167.0	161.0	155.0	150.0	146.0	143.0	140.0	137.0	134.0	130.0	126.0	120.0	113.0	106.0	99.0	91.0	84.0	77.0	71.0	65.0	60.0	55.0	52.0	49.0	46.0	45.0	44.0	43.0	43.0	43.0	44.0	45.0	45.0	46.0	46.0	46.0	45.0	45.0	44.0	43.0	42.0	41.0	40.0	39.0	38.0	37.0	37.0	36.0	36.0	36.0	37.0	37.0	37.0	38.0	38.0	38.0	38.0	39.0	40.0	43.0	51.0	66.0	89.0	119.0	153.0	189.0	221.0	246.0	254.0	254.0	254.0	254.0	241.0	224.0	207.0	192.0	178.0	167.0	158.0	150.0	143.0	137.0	133.0	130.0	129.0	129.0	129.0	129.0	128.0	127.0	123.0	117.0	110.0	103.0	95.0	86.0	78.0	71.0	63.0	57.0	52.0	47.0	43.0	40.0	38.0	36.0	35.0	35.0	35.0	36.0	37.0	38.0	39.0	39.0	40.0	40.0	40.0	40.0	40.0	39.0	38.0	37.0	36.0	35.0	34.0	34.0	33.0	33.0	33.0	33.0	33.0	33.0	32.0	32.0	32.0	32.0	34.0	40.0	52.0	73.0	103.0	140.0	181.0	221.0	254.0	254.0	254.0	254.0	254.0	254.0	254.0	250.0	235.0	221.0	210.0	201.0	193.0	186.0	179.0	172.0	165.0	159.0	154.0	149.0	146.0	142.0	138.0	134.0	128.0	123.0	116.0	109.0	101.0	93.0	85.0	78.0	70.0	64.0	57.0	52.0	47.0	43.0	40.0	38.0	37.0	36.0	36.0	36.0	37.0	38.0	38.0	39.0	39.0	39.0	39.0	38.0	38.0	37.0	36.0	34.0	33.0	32.0	31.0	30.0	29.0	29.0	29.0	29.0	30.0	30.0	31.0	32.0	32.0	32.0	32.0	32.0	32.0	33.0	38.0	48.0	68.0	96.0	131.0	172.0	212.0	247.0	254.0	254.0	254.0	254.0	254.0	254.0	247.0	231.0	217.0	206.0	197.0	189.0	183.0	176.0	170.0	164.0	159.0	154.0	151.0	148.0	145.0	142.0	138.0	133.0	127.0	121.0	114.0	106.0	98.0	91.0	83.0	77.0	70.0	65.0	60.0	56.0	52.0	49.0	47.0	46.0	45.0	45.0	45.0	46.0	46.0	46.0	47.0	47.0	47.0	46.0	45.0	45.0	44.0	43.0	42.0	40.0	39.0	38.0	37.0	37.0	36.0	36.0	35.0	35.0	34.0	33.0	33.0	32.0	32.0	31.0	32.0	36.0	44.0	60.0	83.0	115.0	150.0	186.0	218.0	243.0	254.0	254.0	254.0	250.0	235.0	219.0	203.0	188.0	175.0	165.0	156.0	148.0	142.0	136.0	132.0	129.0	128.0	127.0	127.0	127.0	126.0	123.0	119.0	113.0	106.0	99.0	91.0	83.0	75.0	67.0	60.0	54.0	49.0	45.0	41.0	38.0	36.0	35.0	35.0	35.0	35.0	36.0	37.0	38.0	39.0	40.0	40.0	41.0	41.0	40.0	40.0	39.0	38.0	37.0	36.0	35.0	34.0	34.0	33.0	33.0	33.0	33.0	34.0	34.0	34.0	34.0	34.0	34.0	35.0	40.0	50.0	68.0	95.0	130.0	171.0	213.0	249.0	254.0	254.0	254.0	254.0	254.0	254.0	254.0	244.0	230.0	218.0	209.0	201.0	194.0	187.0	180.0	172.0	165.0	158.0	153.0	148.0	144.0	140.0	135.0	129.0	124.0	117.0	110.0	102.0	93.0	86.0	78.0	72.0	66.0	60.0	55.0	51.0	47.0	44.0	42.0	40.0	39.0	38.0	38.0	38.0	38.0	38.0	38.0	38.0	38.0	37.0	37.0	36.0	35.0	34.0	33.0	31.0	30.0	29.0	28.0	28.0	27.0	27.0	28.0	28.0	29.0	30.0	31.0	32.0	32.0	33.0	33.0	33.0	33.0	35.0	40.0	51.0	70.0	99.0	134.0	175.0	215.0	249.0	254.0	254.0	254.0	254.0	254.0	254.0	246.0	231.0	218.0	208.0	200.0	193.0	186.0	179.0	172.0	165.0	159.0	154.0	149.0	146.0	142.0	138.0	134.0	128.0	123.0	116.0	108.0	101.0	93.0	85.0	78.0	71.0	65.0	60.0	56.0	52.0	49.0	46.0	44.0	43.0	42.0	42.0	42.0	43.0	43.0	44.0	44.0	44.0	44.0	43.0	42.0	42.0	41.0	40.0	39.0	38.0	37.0	36.0	36.0	35.0	35.0	35.0	36.0	36.0	36.0	37.0	37.0	36.0	36.0	35.0	34.0	34.0	36.0	43.0	56.0	77.0	107.0	142.0	179.0	214.0	242.0	254.0	254.0	254.0	254.0	246.0	230.0	213.0	198.0	185.0	174.0	165.0	157.0	150.0	144.0	139.0	135.0	133.0	131.0	131.0	130.0	128.0	126.0	121.0	115.0	108.0	101.0	92.0	84.0	76.0	68.0	61.0	55.0	50.0	45.0	41.0	38.0	36.0	34.0	33.0	33.0	33.0	34.0	35.0	36.0	37.0	37.0	38.0	38.0	38.0	38.0	37.0	36.0	35.0	34.0	33.0	32.0	31.0	30.0	30.0	29.0	29.0	30.0	30.0	31.0	32.0	32.0	32.0	33.0	33.0	33.0	33.0	36.0	44.0	59.0	84.0	118.0	158.0	202.0	242.0	254.0	254.0	254.0	254.0	254.0	254.0	254.0	251.0	236.0	223.0	213.0	204.0	197.0	190.0	182.0	174.0	166.0	159.0	153.0	148.0	144.0	140.0	135.0	131.0	126.0	119.0	112.0	104.0	95.0	87.0	79.0	72.0	65.0	58.0	53.0	48.0	44.0	40.0	37.0	35.0	34.0	33.0	33.0	33.0	34.0	34.0	35.0	35.0	35.0	35.0	34.0	33.0	32.0	31.0	30.0	29.0	27.0	26.0	25.0	24.0	24.0	23.0	23.0	23.0	24.0	25.0	26.0	27.0	29.0	30.0	31.0	32.0	33.0	34.0	34.0	34.0	35.0	39.0	48.0	65.0	93.0	128.0	171.0	215.0	254.0	254.0	254.0	254.0	254.0	254.0	254.0	254.0	246.0	230.0	217.0	206.0	198.0	191.0	184.0	177.0	170.0	163.0	157.0	153.0	149.0	145.0	141.0	137.0	132.0	127.0	120.0	113.0	104.0	96.0	88.0	80.0	72.0	65.0	59.0	54.0	49.0	45.0	42.0	40.0	38.0	37.0	37.0	37.0	37.0	38.0	39.0	39.0	40.0	40.0	40.0	40.0	39.0	38.0	37.0	36.0	35.0	34.0	32.0	31.0	31.0	30.0	30.0	30.0	30.0	31.0	32.0	33.0	34.0	35.0	36.0	36.0	37.0	37.0	37.0	38.0	40.0	46.0	58.0	79.0	109.0	146.0	186.0	224.0	254.0	254.0	254.0	254.0	254.0	254.0	250.0	232.0	213.0	197.0	182.0	170.0	161.0	152.0	145.0	139.0	135.0	133.0	132.0	132.0	133.0	132.0	130.0	127.0	123.0	116.0	109.0	100.0	91.0	83.0	74.0	66.0	59.0	52.0	47.0	41.0	37.0	34.0	31.0	30.0	29.0	29.0	29.0	30.0	31.0	32.0	33.0	34.0	35.0	35.0	35.0	35.0	34.0	33.0	32.0	31.0	30.0	28.0	27.0	26.0	26.0	26.0	26.0	26.0	26.0	27.0	27.0	27.0	27.0	27.0	28.0	29.0	34.0	45.0	66.0	97.0	136.0	182.0	228.0	254.0	254.0	254.0	254.0	254.0	254.0	254.0	254.0	254.0	237.0	222.0	210.0	201.0	193.0	186.0	178.0	171.0	165.0	160.0	155.0	152.0	149.0	145.0	141.0	136.0	130.0	124.0	116.0	108.0	99.0	90.0	81.0	73.0	65.0	58.0	51.0	45.0	41.0	37.0	33.0	31.0	30.0	29.0	28.0	29.0	29.0	30.0	30.0	31.0	31.0	31.0	31.0	30.0	29.0	28.0	26.0	25.0	24.0	22.0	21.0	20.0	19.0	19.0	19.0	19.0	19.0	20.0	21.0	22.0	23.0	23.0	24.0	25.0	26.0	29.0	37.0	53.0	79.0	115.0	158.0	204.0	247.0	254.0	254.0	254.0	254.0	254.0	254.0	254.0	254.0	240.0	224.0	211.0	201.0	192.0	184.0	176.0	169.0	162.0	156.0	152.0	148.0	145.0	142.0	138.0	134.0	128.0	123.0	115.0	107.0	98.0	89.0	80.0	71.0	63.0	56.0	50.0	44.0	39.0	35.0	32.0	30.0	29.0	29.0	29.0	29.0	30.0	31.0	31.0	32.0	33.0	33.0	33.0	32.0	32.0	31.0	30.0	28.0	27.0	26.0	24.0	23.0	22.0	21.0	20.0	20.0	20.0	20.0	21.0	22.0	23.0	23.0	24.0	25.0	25.0	25.0	26.0	30.0	38.0	54.0	81.0	118.0	161.0	207.0	250.0	254.0	254.0	254.0	254.0	254.0	254.0	254.0	254.0	239.0	222.0	209.0	198.0	189.0	181.0	174.0	168.0	163.0	158.0	155.0	153.0	151.0	148.0	144.0	140.0	134.0	127.0	120.0	112.0	104.0	95.0	87.0	79.0	72.0	65.0	60.0	54.0	50.0	46.0	43.0	41.0	40.0	40.0	39.0	40.0	40.0	40.0	41.0	40.0	40.0	39.0	38.0	37.0	35.0	33.0	31.0	30.0	28.0	26.0	25.0	25.0	24.0	24.0	24.0	24.0	24.0	24.0	24.0	24.0	24.0	24.0	24.0	25.0	30.0	40.0	59.0	87.0	124.0	165.0	207.0	243.0	254.0	254.0	254.0	254.0	254.0	254.0	239.0	219.0	201.0	185.0	172.0	161.0	151.0	143.0	137.0	132.0	130.0	129.0	130.0	131.0	132.0	131.0	129.0	126.0	121.0	114.0	106.0	98.0	89.0	80.0	71.0	62.0	54.0	47.0	41.0	37.0	33.0	30.0	28.0	27.0	27.0	27.0	28.0	29.0	31.0	32.0	33.0	34.0	35.0	35.0	35.0	35.0	34.0	33.0	32.0	31.0	30.0	28.0	27.0	27.0	26.0	26.0	26.0	26.0	27.0	27.0	27.0	27.0	27.0	28.0	28.0	31.0	38.0	54.0	79.0	116.0	159.0	206.0	250.0	254.0	254.0	254.0	254.0	254.0	254.0	254.0	254.0	246.0	229.0	215.0	204.0	195.0	187.0	179.0	172.0	165.0	159.0	154.0	151.0	148.0	145.0	141.0	136.0	131.0	125.0	118.0	109.0	101.0	92.0	83.0	74.0	66.0	58.0	52.0	46.0	41.0	36.0	33.0	31.0	29.0	29.0	28.0	29.0	29.0	30.0	31.0	32.0	32.0	32.0	32.0	32.0	31.0	30.0	29.0	28.0	27.0	25.0	23.0	21.0	20.0	18.0	16.0	15.0	15.0	15.0	16.0	17.0	18.0	19.0	20.0	20.0	21.0	23.0	27.0	35.0	53.0	80.0	118.0	163.0	211.0	254.0	254.0	254.0	254.0	254.0	254.0	254.0	254.0	254.0	254.0	237.0	222.0	210.0	199.0	188.0	179.0	170.0	162.0	156.0	151.0	148.0	145.0	142.0	139.0	135.0	130.0	125.0	118.0	110.0	102.0	93.0	85.0	77.0	69.0	63.0	57.0	52.0	47.0	43.0	40.0	37.0	35.0	34.0	34.0	34.0	35.0	37.0	39.0	41.0	42.0	44.0	45.0	46.0	46.0	46.0	45.0	44.0	43.0	42.0	41.0	40.0	38.0	37.0	36.0	35.0	36.0	36.0	37.0	38.0	39.0	40.0	41.0	45.0	56.0	74.0	100.0	133.0	172.0	209.0	241.0	254.0	254.0	254.0	254.0	254.0	243.0	224.0	205.0	187.0	172.0	159.0	148.0	139.0	131.0	127.0	123.0	121.0	121.0	123.0	125.0	126.0	125.0	123.0	120.0	114.0	107.0	99.0	90.0	82.0	73.0	65.0	57.0	50.0	44.0	39.0	36.0	33.0	31.0	30.0	30.0	30.0	31.0	32.0	34.0	35.0	37.0	38.0	39.0	40.0	40.0	41.0	40.0	40.0	40.0	39.0	39.0	39.0	39.0	39.0	39.0	40.0	41.0	41.0	42.0	43.0	45.0	50.0	61.0	80.0	108.0	143.0	184.0	225.0	254.0	254.0	254.0	254.0	254.0	254.0	254.0	251.0	233.0	217.0	204.0	194.0	185.0	177.0	169.0	160.0	152.0	145.0	138.0	133.0	129.0	126.0	123.0	119.0	114.0	108.0	101.0	94.0	86.0	77.0	69.0	61.0	53.0	46.0	40.0	34.0	29.0	26.0	23.0	21.0	20.0	19.0	19.0	20.0	21.0	22.0	23.0	25.0	26.0	26.0	27.0	27.0	27.0	26.0	25.0	24.0	23.0	23.0	22.0	22.0	23.0	24.0	24.0	25.0	26.0	27.0	28.0	28.0	29.0	31.0	34.0	43.0	59.0	85.0	119.0	159.0	201.0	239.0	254.0	254.0	254.0	254.0	254.0	254.0	252.0	234.0	218.0	205.0	194.0	185.0	177.0	169.0	161.0	154.0	147.0	141.0	136.0	132.0	128.0	126.0	122.0	117.0	112.0	105.0	98.0	90.0	82.0	74.0	66.0	59.0	52.0	47.0	42.0	38.0	35.0	32.0	31.0	30.0	29.0	29.0	30.0	30.0	31.0	32.0	33.0	34.0	35.0	35.0	35.0	34.0	34.0	33.0	31.0	30.0	29.0	27.0	26.0	25.0	24.0	24.0	24.0	25.0	26.0	27.0	28.0	29.0	30.0	31.0	31.0	31.0	32.0	35.0	41.0	55.0	77.0	109.0	148.0	191.0	232.0	254.0	254.0	254.0	254.0	254.0	254.0	254.0	243.0	225.0	210.0	197.0	187.0	179.0	171.0	164.0	158.0	152.0	148.0	145.0	142.0	140.0	138.0	134.0	130.0	126.0	119.0	112.0	104.0	96.0	88.0	80.0	73.0	66.0	60.0	55.0	50.0	45.0	42.0	39.0	37.0	36.0	36.0	36.0	36.0	36.0	36.0	37.0	37.0	37.0	36.0	36.0	35.0	34.0	33.0	31.0	30.0	28.0	27.0	26.0	26.0	25.0	25.0	25.0	25.0	25.0	25.0	25.0	24.0	24.0	24.0	26.0	32.0	45.0	66.0	96.0	134.0	176.0	216.0	251.0	254.0	254.0	254.0	254.0	254.0	254.0	248.0	232.0	216.0	202.0	190.0	179.0	169.0	159.0	151.0	144.0	140.0	136.0	134.0	132.0	130.0	127.0	124.0	119.0	113.0	105.0	97.0	87.0	77.0	67.0	57.0	48.0	40.0	32.0	25.0	19.0	15.0	13.0	12.0	12.0	13.0	15.0	18.0	20.0	23.0	25.0	26.0	26.0	27.0	27.0	27.0	27.0	27.0	28.0	28.0	29.0	29.0	29.0	30.0	30.0	31.0	32.0	34.0	35.0	37.0	38.0	39.0	40.0	42.0	48.0	61.0	82.0	112.0	149.0	190.0	230.0	254.0	254.0	254.0	254.0	254.0	254.0	254.0	254.0	243.0	229.0	217.0	207.0	198.0	190.0	181.0	173.0	165.0	159.0	153.0	148.0	144.0	140.0	136.0	130.0	125.0	118.0	111.0	102.0	93.0	84.0	75.0	66.0	58.0	50.0	43.0	37.0	32.0	28.0	26.0	24.0	23.0	23.0	24.0	25.0	25.0	26.0	27.0	28.0	29.0	29.0	30.0	30.0	30.0	29.0	28.0	27.0	26.0	25.0	25.0	24.0	24.0	24.0	24.0	24.0	24.0	24.0	24.0	23.0	23.0	24.0	26.0	32.0	45.0	66.0	97.0	134.0	175.0	214.0	247.0	254.0	254.0	254.0	254.0	254.0	250.0	233.0	217.0	202.0	190.0	179.0	170.0	162.0	154.0	147.0	141.0	137.0	135.0	133.0	132.0	131.0	129.0	127.0	123.0	117.0	111.0	104.0	96.0	88.0	80.0	73.0	66.0	59.0	53.0	48.0	43.0	40.0	37.0	36.0	35.0	35.0	35.0	36.0	37.0	38.0	39.0	40.0	41.0	41.0	42.0	41.0	41.0	40.0	39.0	37.0	36.0	34.0	31.0	30.0	28.0	27.0	27.0	27.0	28.0	28.0	28.0	29.0	30.0	31.0	33.0	40.0	53.0	75.0	106.0	143.0	185.0	224.0	254.0	254.0	254.0	254.0	254.0	254.0	254.0	237.0	219.0	201.0	184.0	170.0	157.0	147.0	139.0	133.0	129.0	128.0	128.0	129.0	131.0	132.0	131.0	130.0	127.0	123.0	116.0	108.0	99.0	90.0	80.0	71.0	63.0	55.0	49.0	43.0	39.0	36.0	33.0	32.0	31.0	31.0	31.0	32.0	33.0	35.0	254.0	254.0	254.0	254.0	239.0	222.0	208.0	196.0	185.0	177.0	169.0	161.0	154.0	148.0	143.0	140.0	138.0	136.0	134.0	131.0	128.0	124.0	118.0	111.0	103.0	95.0	87.0	78.0	70.0	62.0	55.0	49.0	44.0	39.0	36.0	33.0	31.0	31.0	32.0	35.0	39.0	44.0	50.0	56.0	62.0	66.0	68.0	69.0	67.0	64.0	60.0	56.0	52.0	47.0	43.0	39.0	36.0	34.0	32.0	30.0	28.0	27.0	26.0	26.0	25.0	26.0	31.0	41.0	59.0	88.0	126.0	168.0	212.0	250.0	254.0	254.0	254.0	254.0	254.0	254.0	251.0	233.0	216.0	202.0	190.0	179.0	170.0	163.0	156.0	150.0	145.0	141.0	138.0	136.0	133.0	129.0	125.0	119.0	113.0	105.0	97.0	89.0	81.0	73.0	66.0	60.0	55.0	50.0	46.0	43.0	40.0	37.0	35.0	32.0	30.0	28.0	26.0	25.0	24.0	23.0	23.0	24.0	24.0	25.0	26.0	27.0	28.0	30.0	32.0	33.0	35.0	37.0	38.0	39.0	39.0	40.0	39.0	39.0	38.0	37.0	37.0	38.0	42.0	54.0	74.0	104.0	141.0	183.0	224.0	254.0	254.0	254.0	254.0	254.0	254.0	254.0	235.0	214.0	196.0	181.0	169.0	160.0	152.0	146.0	142.0	138.0	137.0	136.0	135.0	135.0	133.0	131.0	127.0	122.0	115.0	107.0	97.0	88.0	78.0	68.0	59.0	50.0	43.0	36.0	30.0	24.0	20.0	17.0	15.0	13.0	12.0	12.0	12.0	12.0	12.0	13.0	13.0	13.0	14.0	15.0	16.0	17.0	19.0	21.0	23.0	25.0	27.0	28.0	30.0	31.0	31.0	32.0	32.0	32.0	32.0	32.0	33.0	37.0	47.0	64.0	90.0	125.0	162.0	200.0	233.0	254.0	254.0	254.0	254.0	253.0	235.0	216.0	197.0	180.0	166.0	154.0	145.0	137.0	130.0	126.0	122.0	120.0	120.0	120.0	121.0	122.0	122.0	121.0	119.0	115.0	110.0	104.0	96.0	89.0	81.0	73.0	66.0	60.0	54.0	49.0	45.0	42.0	39.0	37.0	35.0	34.0	34.0	34.0	34.0	35.0	35.0	35.0	35.0	34.0	33.0	32.0	32.0	31.0	31.0	31.0	31.0	31.0	30.0	30.0	30.0	30.0	29.0	29.0	30.0	31.0	34.0	41.0	54.0	77.0	108.0	144.0	184.0	221.0	251.0	254.0	254.0	254.0	254.0	254.0	236.0	217.0	198.0	182.0	167.0	155.0	145.0	137.0	130.0	126.0	124.0	124.0	124.0	126.0	127.0	127.0	126.0	123.0	118.0	112.0	104.0	96.0	88.0	79.0	71.0	64.0	57.0	51.0	45.0	41.0	37.0	35.0	33.0	32.0	31.0	31.0	32.0	33.0	35.0	36.0	38.0	40.0	41.0	42.0	44.0	44.0	45.0	45.0	45.0	45.0	44.0	43.0	41.0	40.0	38.0	37.0	38.0	43.0	55.0	77.0	107.0	144.0	185.0	223.0	254.0	254.0	254.0	254.0	254.0	254.0	251.0	234.0	217.0	201.0	188.0	176.0	166.0	157.0	149.0	143.0	137.0	133.0	131.0	129.0	128.0	127.0	126.0	124.0	120.0	115.0	109.0	102.0	95.0	88.0	80.0	73.0	66.0	60.0	55.0	51.0	48.0	46.0	45.0	45.0	45.0	45.0	45.0	45.0	44.0	42.0	42.0	41.0	40.0	39.0	38.0	37.0	36.0	34.0	32.0	30.0	28.0	27.0	25.0	23.0	21.0	20.0	19.0	20.0	25.0	35.0	54.0	81.0	116.0	153.0	192.0	225.0	250.0	254.0	254.0	254.0	254.0	244.0	228.0	211.0	196.0	182.0	169.0	158.0	147.0	137.0	128.0	121.0	114.0	109.0	106.0	103.0	100.0	97.0	93.0	89.0	85.0	81.0	77.0	73.0	68.0	63.0	58.0	53.0	48.0	44.0	41.0	39.0	38.0	38.0	39.0	40.0	42.0	44.0	46.0	49.0	51.0	52.0	54.0	55.0	57.0	59.0	62.0	65.0	68.0	70.0	72.0	72.0	72.0	70.0	68.0	64.0	61.0	57.0	53.0	50.0	49.0	53.0	64.0	83.0	109.0	138.0	169.0	195.0	214.0	223.0	223.0	216.0	203.0	188.0	171.0	155.0	140.0	128.0	118.0	109.0	102.0	96.0	91.0	87.0	84.0	83.0	84.0	84.0	85.0	86.0	85.0	84.0	81.0	78.0	74.0	70.0	65.0	60.0	56.0	51.0	47.0	44.0	41.0	39.0	38.0	40.0	43.0	47.0	51.0	54.0	56.0	58.0	58.0	59.0	60.0	61.0	62.0	62.0	62.0	62.0	63.0	64.0	65.0	66.0	66.0	67.0	68.0	71.0	76.0	81.0	87.0	92.0	96.0	102.0	111.0	126.0	147.0	173.0	202.0	229.0	251.0	254.0	254.0	254.0	254.0	243.0	226.0	208.0	191.0	177.0	164.0	154.0	144.0	137.0	130.0	127.0	124.0	123.0	122.0	123.0	124.0	123.0	123.0	120.0	117.0	113.0	108.0	102.0	96.0	90.0	85.0	81.0	77.0	73.0	70.0	67.0	64.0	61.0	59.0	57.0	55.0	53.0	53.0	52.0	52.0	51.0	50.0	49.0	48.0	48.0	48.0	49.0	50.0	51.0	51.0	51.0	50.0	50.0	50.0	52.0	56.0	66.0	83.0	108.0	138.0	173.0	206.0	235.0	254.0	254.0	254.0	254.0	244.0	229.0	213.0	199.0	187.0	177.0	169.0	161.0	154.0	147.0	140.0	134.0	128.0	125.0	122.0	120.0	118.0	115.0	112.0	108.0	103.0	97.0	90.0	83.0	75.0	67.0	60.0	54.0	48.0	44.0	40.0	38.0	37.0	37.0	38.0	41.0	43.0	46.0	48.0	49.0	49.0	49.0	49.0	49.0	48.0	48.0	48.0	48.0	47.0	47.0	47.0	47.0	47.0	47.0	48.0	48.0	49.0	52.0	58.0	71.0	90.0	116.0	144.0	174.0	200.0	218.0	228.0	230.0	224.0	214.0	200.0	185.0	172.0	160.0	150.0	143.0	137.0	131.0	127.0	121.0	116.0	112.0	109.0	107.0	105.0	104.0	103.0	102.0	100.0	98.0	95.0	91.0	86.0	81.0	76.0	71.0	67.0	63.0	59.0	55.0	52.0	47.0	44.0	40.0	38.0	37.0	36.0	36.0	36.0	36.0	34.0	31.0	27.0	23.0	21.0	21.0	22.0	24.0	27.0	30.0	34.0	39.0	43.0	48.0	51.0	53.0	54.0	55.0	56.0	61.0	71.0	87.0	110.0	138.0	167.0	195.0	216.0	229.0	233.0	230.0	222.0	209.0	196.0	182.0	170.0	159.0	149.0	141.0	134.0	128.0	124.0	120.0	117.0	116.0	116.0	116.0	116.0	116.0	115.0	113.0	110.0	105.0	101.0	96.0	91.0	86.0	81.0	75.0	69.0	63.0	58.0	54.0	51.0	50.0	49.0	50.0	51.0	53.0	55.0	56.0	57.0	57.0	56.0	56.0	55.0	55.0	55.0	56.0	56.0	57.0	58.0	59.0	61.0	62.0	63.0	63.0	64.0	64.0	65.0	65.0	67.0	71.0	79.0	93.0	112.0	136.0	162.0	188.0	209.0	223.0	229.0	227.0	220.0	208.0	194.0	180.0	166.0	154.0	143.0	134.0	127.0	121.0	116.0	113.0	111.0	110.0	111.0	113.0	114.0	115.0	116.0	115.0	112.0	109.0	104.0	99.0	94.0	88.0	83.0	77.0	73.0	69.0	65.0	62.0	60.0	59.0	58.0	58.0	58.0	59.0	60.0	61.0	62.0	63.0	64.0	65.0	66.0	67.0	67.0	68.0	68.0	68.0	67.0	66.0	65.0	63.0	61.0	59.0	57.0	56.0	58.0	63.0	75.0	94.0	119.0	146.0	175.0	199.0	217.0	226.0	227.0	221.0	211.0	198.0	185.0	172.0	162.0	153.0	146.0	139.0	134.0	129.0	125.0	120.0	116.0	114.0	112.0	112.0	112.0	111.0	111.0	109.0	106.0	102.0	98.0	92.0	87.0	80.0	74.0	68.0	62.0	57.0	54.0	51.0	49.0	48.0	49.0	50.0	53.0	57.0	61.0	64.0	65.0	66.0	66.0	65.0	64.0	63.0	62.0	61.0	60.0	59.0	58.0	58.0	57.0	57.0	56.0	56.0	55.0	53.0	52.0	52.0	53.0	58.0	68.0	85.0	109.0	137.0	168.0	196.0	218.0	232.0	237.0	233.0	224.0	211.0	196.0	181.0	167.0	155.0	145.0	137.0	130.0	125.0	120.0	117.0	115.0	115.0	115.0	117.0	118.0	119.0	118.0	116.0	113.0	108.0	102.0	95.0	88.0	82.0	75.0	69.0	64.0	60.0	56.0	53.0	51.0	49.0	48.0	47.0	47.0	47.0	47.0	48.0	49.0	51.0	52.0	53.0	55.0	56.0	57.0	59.0	60.0	61.0	61.0	61.0	61.0	62.0	62.0	62.0	62.0	63.0	63.0	65.0	69.0	79.0	95.0	117.0	142.0	168.0	191.0	208.0	218.0	221.0	218.0	209.0	197.0	183.0	169.0	156.0	144.0	133.0	125.0	118.0	112.0	108.0	105.0	104.0	105.0	106.0	108.0	109.0	108.0	107.0	104.0	100.0	95.0	90.0	84.0	77.0	71.0	66.0	60.0	56.0	52.0	49.0	47.0	45.0	44.0	44.0	44.0	45.0	47.0	48.0	50.0	52.0	54.0	55.0	57.0	59.0	60.0	61.0	62.0	62.0	62.0	61.0	61.0	60.0	60.0	59.0	58.0	58.0	60.0	66.0	79.0	100.0	126.0	156.0	187.0	214.0	234.0	247.0	252.0	250.0	243.0	232.0	220.0	207.0	195.0	185.0	175.0	167.0	159.0	151.0	144.0	138.0	134.0	131.0	128.0	127.0	126.0	125.0	122.0	119.0	115.0	110.0	104.0	97.0	91.0	84.0	78.0	72.0	67.0	62.0	58.0	54.0	52.0	51.0	50.0	50.0	50.0	50.0	51.0	51.0	51.0	51.0	51.0	51.0	50.0	50.0	50.0	51.0	52.0	53.0	54.0	55.0	56.0	57.0	58.0	60.0	61.0	63.0	67.0	75.0	89.0	109.0	133.0	160.0	186.0	207.0	221.0	227.0	225.0	217.0	204.0	189.0	174.0	160.0	148.0	139.0	131.0	126.0	121.0	117.0	114.0	112.0	111.0	111.0	112.0	112.0	112.0	111.0	108.0	105.0	100.0	95.0	89.0	84.0	78.0	72.0	67.0	63.0	59.0	56.0	54.0	52.0	51.0	50.0	49.0	49.0	49.0	50.0	51.0	51.0	52.0	53.0	53.0	54.0	54.0	54.0	54.0	54.0	54.0	54.0	54.0	53.0	52.0	51.0	51.0	51.0	52.0	54.0	61.0	73.0	91.0	114.0	140.0	167.0	189.0	205.0	213.0	214.0	208.0	198.0	185.0	172.0	159.0	148.0	138.0	130.0	124.0	117.0	112.0	108.0	106.0	105.0	105.0	106.0	107.0	108.0	107.0	106.0	103.0	98.0	93.0	87.0	81.0	74.0	68.0	63.0	58.0	54.0	51.0	49.0	48.0	48.0	48.0	49.0	50.0	51.0	52.0	53.0	55.0	56.0	57.0	58.0	58.0	58.0	58.0	58.0	58.0	58.0	58.0	58.0	57.0	56.0	55.0	55.0	54.0	55.0	59.0	68.0	83.0	105.0	132.0	161.0	188.0	210.0	223.0	228.0	225.0	217.0	205.0	192.0	180.0	169.0	160.0	153.0	147.0	142.0	136.0	131.0	127.0	123.0	120.0	118.0	117.0	116.0	114.0	111.0	108.0	103.0	97.0	91.0	85.0	78.0	73.0	67.0	63.0	59.0	56.0	53.0	51.0	50.0	49.0	48.0	48.0	48.0	48.0	48.0	49.0	49.0	50.0	50.0	51.0	51.0	51.0	52.0	52.0	52.0	52.0	52.0	52.0	53.0	53.0	53.0	53.0	53.0	53.0	53.0	54.0	57.0	65.0	78.0	98.0	123.0	149.0	176.0	198.0	212.0	218.0	217.0	210.0	200.0	188.0	175.0	164.0	154.0	146.0	140.0	135.0	130.0	127.0	125.0	123.0	121.0	121.0	120.0	120.0	119.0	117.0	114.0	109.0	105.0	99.0	93.0	87.0	82.0	76.0	72.0	68.0	64.0	62.0	60.0	58.0	57.0	56.0	55.0	55.0	54.0	55.0	55.0	55.0	55.0	54.0	54.0	54.0	54.0	55.0	55.0	55.0	55.0	54.0	55.0	55.0	55.0	54.0	54.0	55.0	58.0	64.0	75.0	92.0	115.0	140.0	166.0	188.0	204.0	213.0	215.0	210.0	201.0	190.0	178.0	167.0	157.0	149.0	142.0	136.0	131.0	126.0	121.0	116.0	113.0	110.0	109.0	108.0	107.0	107.0	105.0	103.0	100.0	96.0	92.0	87.0	82.0	78.0	73.0	69.0	66.0	63.0	61.0	59.0	58.0	57.0	56.0	55.0	55.0	55.0	55.0	55.0	55.0	56.0	57.0	57.0	58.0	59.0	59.0	60.0	60.0	60.0	61.0	61.0	61.0	61.0	61.0	60.0	60.0	60.0	60.0	62.0	67.0	77.0	94.0	116.0	142.0	170.0	195.0	214.0	225.0	228.0	224.0	215.0	203.0	190.0	177.0	165.0	155.0	147.0	141.0	135.0	131.0	127.0	124.0	122.0	121.0	121.0	121.0	121.0	120.0	118.0	115.0	110.0	105.0	99.0	93.0	87.0	82.0	77.0	72.0	68.0	65.0	63.0	61.0	59.0	58.0	57.0	57.0	56.0	56.0	56.0	57.0	57.0	58.0	58.0	59.0	59.0	59.0	59.0	59.0	59.0	59.0	59.0	59.0	59.0	59.0	60.0	60.0	60.0	60.0	60.0	60.0	60.0	60.0	62.0	68.0	80.0	98.0	123.0	151.0	179.0	204.0	222.0	232.0	234.0	230.0	221.0	210.0	197.0	185.0	173.0	162.0	152.0	144.0	136.0	130.0	126.0	122.0	121.0	121.0	122.0	122.0	123.0	122.0	120.0	116.0	112.0	107.0	101.0	95.0	88.0	81.0	74.0	68.0	63.0	60.0	57.0	56.0	55.0	55.0	55.0	55.0	56.0	56.0	57.0	58.0	58.0	59.0	60.0	61.0	62.0	62.0	63.0	63.0	63.0	63.0	63.0	63.0	62.0	62.0	61.0	61.0	61.0	61.0	63.0	68.0	77.0	93.0	115.0	141.0	169.0	194.0	215.0	227.0	231.0	228.0	219.0	207.0	194.0	181.0	170.0	160.0	153.0	146.0	140.0	134.0	127.0	122.0	117.0	114.0	111.0	110.0	108.0	107.0	106.0	104.0	101.0	97.0	92.0	86.0	80.0	73.0	67.0	62.0	57.0	53.0	50.0	48.0	46.0	45.0	44.0	43.0	43.0	43.0	44.0	45.0	46.0	47.0	48.0	49.0	50.0	50.0	51.0	52.0	52.0	53.0	54.0	54.0	55.0	55.0	54.0	54.0	53.0	51.0	50.0	48.0	48.0	51.0	58.0	72.0	93.0	120.0	150.0	180.0	205.0	222.0	231.0	231.0	224.0	213.0	199.0	184.0	170.0	158.0	148.0	140.0	134.0	128.0	124.0	120.0	117.0	115.0	115.0	115.0	116.0	117.0	117.0	116.0	114.0	110.0	105.0	99.0	92.0	85.0	78.0	72.0	68.0	64.0	62.0	61.0	60.0	60.0	61.0	62.0	63.0	65.0	66.0	68.0	68.0	68.0	68.0	66.0	65.0	63.0	61.0	60.0	60.0	59.0	60.0	60.0	61.0	61.0	62.0	61.0	61.0	59.0	58.0	57.0	57.0	59.0	64.0	75.0	93.0	118.0	146.0	176.0	203.0	224.0	237.0	240.0	236.0	226.0	212.0	197.0	182.0	168.0	157.0	148.0	140.0	133.0	127.0	123.0	119.0	116.0	114.0	114.0	114.0	115.0	115.0	114.0	112.0	108.0	104.0	100.0	94.0	89.0	83.0	77.0	72.0	67.0	63.0	59.0	57.0	55.0	54.0	53.0	52.0	51.0	51.0	52.0	53.0	54.0	55.0	55.0	56.0	55.0	55.0	54.0	53.0	53.0	53.0	53.0	53.0	54.0	54.0	54.0	55.0	55.0	55.0	55.0	55.0	55.0	58.0	64.0	76.0	95.0	121.0	149.0	179.0	205.0	224.0	234.0	236.0	230.0	219.0	205.0	190.0	175.0	162.0	151.0	142.0	134.0	128.0	123.0	119.0	115.0	113.0	111.0	112.0	112.0	112.0	112.0	111.0	108.0	104.0	98.0	93.0	86.0	80.0	74.0	69.0	64.0	59.0	56.0	53.0	50.0	48.0	47.0	46.0	45.0	45.0	46.0	47.0	48.0	49.0	51.0	52.0	54.0	55.0	56.0	56.0	56.0	56.0	56.0	57.0	57.0	58.0	58.0	59.0	60.0	60.0	61.0	61.0	61.0	61.0	62.0	66.0	74.0	89.0	111.0	137.0	167.0	196.0	220.0	236.0	244.0	243.0	235.0	223.0	207.0	190.0	174.0	160.0	148.0	138.0	130.0	124.0	119.0	116.0	114.0	114.0	115.0	117.0	119.0	121.0	121.0	120.0	118.0	114.0	109.0	103.0	96.0	90.0	83.0	78.0	73.0	68.0	64.0	61.0	58.0	56.0	54.0	53.0	53.0	53.0	54.0	54.0	55.0	56.0	57.0	58.0	60.0	60.0	61.0	62.0	62.0	62.0	62.0	61.0	60.0	60.0	60.0	60.0	61.0	61.0	62.0	63.0	67.0	76.0	92.0	116.0	144.0	176.0	206.0	230.0	246.0	252.0	250.0	241.0	228.0	211.0	194.0	178.0	164.0	152.0	143.0	135.0	128.0	123.0	118.0	114.0	112.0	111.0	111.0	111.0	112.0	111.0	110.0	108.0	104.0	99.0	94.0	88.0	82.0	76.0	71.0	66.0	61.0	57.0	54.0	51.0	49.0	47.0	46.0	45.0	45.0	45.0	46.0	47.0	49.0	50.0	51.0	52.0	54.0	54.0	55.0	56.0	56.0	56.0	56.0	56.0	56.0	55.0	54.0	54.0	53.0	53.0	52.0	52.0	53.0	56.0	62.0	74.0	94.0	121.0	152.0	185.0	215.0	237.0	250.0	254.0	250.0	239.0	223.0	206.0	189.0	173.0	160.0	149.0	140.0	132.0	127.0	122.0	118.0	116.0	115.0	115.0	116.0	116.0	116.0	114.0	112.0	108.0	104.0	99.0	93.0	88.0	83.0	77.0	72.0	68.0	63.0	59.0	55.0	52.0	49.0	47.0	46.0	45.0	45.0	44.0	45.0	45.0	46.0	47.0	49.0	50.0	52.0	53.0	52.0	50.0	47.0	43.0	40.0	37.0	35.0	33.0	31.0	29.0	27.0	24.0	22.0	19.0	17.0	15.0	14.0	17.0	25.0	41.0	66.0	99.0	136.0	175.0	209.0	234.0	249.0	254.0	250.0	241.0	229.0	217.0	208.0	206.0	212.0	222.0	233.0	239.0	239.0	231.0	221.0	212.0	207.0	205.0	205.0	205.0	204.0	201.0	196.0	189.0	180.0	171.0	161.0	151.0	140.0	130.0	120.0	110.0	99.0	90.0	81.0	74.0	69.0	65.0	62.0	60.0	58.0	57.0	56.0	56.0	56.0	56.0	55.0	55.0	54.0	53.0	52.0	51.0	50.0	49.0	48.0	46.0	44.0	43.0	41.0	39.0	37.0	35.0	34.0	34.0	35.0	40.0	52.0	70.0	97.0	127.0	159.0	189.0	212.0	226.0	231.0	228.0	220.0	207.0	193.0	178.0	165.0	152.0	141.0	131.0	123.0	115.0	108.0	103.0	98.0	96.0	95.0	95.0	96.0	96.0	95.0	94.0	91.0	88.0	83.0	78.0	72.0	66.0	59.0	53.0	48.0	43.0	39.0	35.0	32.0	30.0	28.0	27.0	27.0	27.0	29.0	31.0	33.0	35.0	37.0	39.0	40.0	41.0	41.0	41.0	42.0	42.0	43.0	44.0	44.0	45.0	45.0	45.0	45.0	44.0	43.0	42.0	42.0	43.0	48.0	59.0	78.0	104.0	134.0	168.0	199.0	225.0	241.0	247.0	245.0	236.0	223.0	207.0	191.0	176.0	163.0	152.0	144.0	136.0	129.0	124.0	120.0	117.0	115.0	115.0	116.0	116.0	116.0	114.0	112.0	108.0	103.0	97.0	90.0	83.0	77.0	70.0	64.0	59.0	54.0	50.0	46.0	43.0	41.0	40.0	39.0	39.0	40.0	40.0	41.0	43.0	44.0	46.0	48.0	49.0	51.0	52.0	53.0	53.0	53.0	53.0	52.0	51.0	50.0	49.0	48.0	47.0	46.0	44.0	44.0	43.0	45.0	51.0	63.0	83.0	110.0	141.0	174.0	204.0	227.0	240.0	244.0	241.0	232.0	219.0	204.0	190.0	177.0	165.0	156.0	147.0	140.0	132.0	127.0	122.0	118.0	117.0	119.0	121.0	124.0	126.0	125.0	123.0	118.0	111.0	103.0	95.0	86.0	79.0	72.0	66.0	61.0	57.0	54.0	51.0	48.0	46.0	45.0	45.0	48.0	53.0	59.0	66.0	73.0	79.0	83.0	86.0	88.0	88.0	87.0	86.0	85.0	84.0	83.0	82.0	81.0	80.0	78.0	76.0	75.0	77.0	84.0	98.0	118.0	143.0	171.0	197.0	218.0	231.0	235.0	232.0	222.0	209.0	194.0	179.0	166.0	154.0	143.0	134.0	126.0	118.0	112.0	106.0	103.0	101.0	101.0	102.0	103.0	103.0	103.0	101.0	98.0	94.0	88.0	81.0	75.0	68.0	61.0	55.0	50.0	46.0	43.0	42.0	42.0	43.0	44.0	45.0	46.0	47.0	47.0	47.0	47.0	47.0	48.0	48.0	49.0	49.0	50.0	50.0	50.0	51.0	52.0	52.0	53.0	53.0	54.0	56.0	61.0	72.0	90.0	114.0	142.0	173.0	200.0	220.0	232.0	235.0	231.0	221.0	207.0	192.0	178.0	165.0	153.0	144.0	137.0	131.0	126.0	121.0	116.0	113.0	111.0	110.0	110.0	110.0	110.0	108.0	106.0	103.0	99.0	94.0	88.0	82.0	76.0	70.0	65.0	61.0	57.0	54.0	51.0	49.0	48.0	46.0	45.0	43.0	43.0	42.0	43.0	44.0	45.0	47.0	49.0	51.0	53.0	54.0	55.0	55.0	54.0	53.0	51.0	50.0	48.0	47.0	45.0	45.0	46.0	51.0	62.0	80.0	105.0	134.0	164.0	192.0	212.0	224.0	226.0	222.0	212.0	200.0	187.0	174.0	163.0	155.0	148.0	142.0	136.0	131.0	127.0	122.0	119.0	117.0	116.0	115.0	114.0	112.0	110.0	105.0	100.0	95.0	89.0	83.0	77.0	72.0	66.0	62.0	57.0	54.0	51.0	48.0	47.0	45.0	45.0	45.0	45.0	46.0	47.0	48.0	50.0	51.0	52.0	53.0	53.0	53.0	53.0	53.0	54.0	55.0	56.0	57.0	58.0	59.0	59.0	58.0	58.0	57.0	57.0	58.0	62.0	73.0	90.0	114.0	143.0	173.0	201.0	221.0	233.0	236.0	231.0	220.0	205.0	190.0	174.0	161.0	149.0	140.0	132.0	126.0	121.0	116.0	113.0	112.0	112.0	113.0	114.0	114.0	114.0	113.0	110.0	106.0	101.0	95.0	89.0	83.0	77.0	71.0	66.0	61.0	57.0	54.0	51.0	50.0	49.0	49.0	49.0	49.0	49.0	49.0	50.0	50.0	50.0	50.0	50.0	51.0	52.0	53.0	55.0	56.0	58.0	59.0	60.0	60.0	60.0	58.0	57.0	55.0	55.0	58.0	67.0	83.0	106.0	133.0	164.0	192.0	214.0	228.0	233.0	230.0	222.0	209.0	194.0	179.0	165.0	152.0	141.0	132.0	125.0	117.0	111.0	105.0	102.0	100.0	100.0	102.0	103.0	104.0	104.0	103.0	100.0	96.0	91.0	86.0	80.0	74.0	68.0	63.0	59.0	55.0	52.0	51.0	50.0	50.0	50.0	51.0	52.0	53.0	54.0	55.0	56.0	57.0	58.0	59.0	60.0	61.0	62.0	62.0	62.0	61.0	61.0	60.0	59.0	58.0	57.0	56.0	55.0	55.0	55.0	59.0	66.0	79.0	100.0	127.0	157.0	189.0	216.0	236.0	247.0	249.0	244.0	233.0	219.0	204.0	190.0	176.0	165.0	155.0	147.0	139.0	133.0	127.0	123.0	119.0	117.0	115.0	114.0	113.0	111.0	108.0	105.0	101.0	95.0	90.0	84.0	78.0	72.0	67.0	62.0	58.0	54.0	51.0	49.0	47.0	46.0	45.0	45.0	46.0	46.0	47.0	48.0	49.0	50.0	50.0	51.0	51.0	51.0	51.0	51.0	52.0	54.0	55.0	56.0	57.0	57.0	57.0	56.0	56.0	55.0	55.0	54.0	54.0	55.0	58.0	64.0	77.0	97.0	124.0	154.0	185.0	212.0	232.0	242.0	244.0	238.0	226.0	212.0	196.0	180.0	166.0	154.0	144.0	135.0	128.0	124.0	119.0	115.0	113.0	112.0	112.0	112.0	112.0	112.0	110.0	107.0	103.0	98.0	92.0	87.0	81.0	76.0	71.0	66.0	62.0	59.0	56.0	54.0	52.0	51.0	50.0	49.0	49.0	49.0	125.0	154.0	185.0	212.0	233.0	244.0	247.0	242.0	231.0	216.0	200.0	183.0	168.0	155.0	144.0	136.0	129.0	125.0	121.0	120.0	120.0	121.0	122.0	124.0	124.0	123.0	120.0	115.0	109.0	103.0	96.0	90.0	83.0	77.0	71.0	67.0	62.0	59.0	55.0	52.0	50.0	48.0	46.0	45.0	46.0	47.0	49.0	52.0	55.0	58.0	59.0	60.0	60.0	60.0	59.0	58.0	56.0	55.0	54.0	53.0	53.0	53.0	54.0	55.0	55.0	56.0	56.0	56.0	56.0	57.0	58.0	62.0	71.0	87.0	110.0	139.0	171.0	202.0	227.0	244.0	253.0	252.0	245.0	232.0	216.0	198.0	181.0	166.0	153.0	142.0	133.0	126.0	120.0	115.0	111.0	110.0	109.0	109.0	110.0	110.0	109.0	107.0	104.0	101.0	97.0	92.0	87.0	82.0	77.0	74.0	71.0	69.0	67.0	66.0	65.0	64.0	63.0	63.0	62.0	62.0	61.0	61.0	60.0	60.0	60.0	59.0	59.0	58.0	56.0	55.0	53.0	51.0	50.0	50.0	50.0	51.0	52.0	53.0	54.0	55.0	57.0	58.0	59.0	61.0	62.0	63.0	66.0	71.0	82.0	100.0	123.0	150.0	180.0	206.0	226.0	238.0	242.0	237.0	227.0	214.0	198.0	182.0	167.0	154.0	144.0	135.0	128.0	123.0	118.0	114.0	111.0	109.0	108.0	107.0	106.0	105.0	103.0	99.0	95.0	90.0	85.0	79.0	74.0	69.0	65.0	61.0	58.0	55.0	52.0	50.0	49.0	48.0	47.0	46.0	47.0	47.0	48.0	50.0	52.0	54.0	55.0	56.0	57.0	57.0	57.0	57.0	57.0	58.0	58.0	58.0	59.0	60.0	61.0	62.0	63.0	64.0	65.0	66.0	66.0	66.0	66.0	67.0	70.0	77.0	90.0	109.0	133.0	160.0	185.0	206.0	220.0	226.0	224.0	216.0	205.0	190.0	176.0	162.0	150.0	140.0	132.0	126.0	121.0	117.0	114.0	112.0	112.0	112.0	113.0	114.0	114.0	114.0	112.0	109.0	105.0	99.0	93.0	87.0	80.0	73.0	68.0	63.0	58.0	55.0	53.0	52.0	51.0	50.0	50.0	51.0	52.0	53.0	55.0	57.0	59.0	60.0	61.0	61.0	61.0	61.0	60.0	60.0	59.0	59.0	59.0	59.0	59.0	59.0	59.0	59.0	59.0	59.0	59.0	60.0	60.0	61.0	64.0	69.0	78.0	93.0	114.0	139.0	167.0	194.0	216.0	231.0	238.0	237.0	231.0	220.0	207.0	193.0	180.0	169.0	160.0	152.0	146.0	140.0	135.0	131.0	128.0	127.0	126.0	125.0	124.0	122.0	119.0	116.0	112.0	107.0	102.0	96.0	90.0	84.0	79.0	74.0	70.0	67.0	65.0	63.0	61.0	61.0	61.0	62.0	63.0	64.0	66.0	67.0	69.0	70.0	71.0	71.0	71.0	71.0	70.0	69.0	69.0	68.0	68.0	68.0	68.0	69.0	69.0	69.0	69.0	69.0	69.0	68.0	67.0	66.0	65.0	65.0	65.0	69.0	77.0	92.0	112.0	136.0	161.0	185.0	203.0	214.0	217.0	215.0	208.0	198.0	187.0	176.0	165.0	156.0	149.0	142.0	136.0	130.0	126.0	121.0	117.0	114.0	112.0	111.0	111.0	110.0	108.0	106.0	101.0	96.0	89.0	83.0	77.0	71.0	66.0	63.0	60.0	59.0	57.0	57.0	56.0	56.0	56.0	55.0	55.0	55.0	55.0	55.0	55.0	56.0	57.0	57.0	58.0	58.0	59.0	59.0	58.0	58.0	59.0	59.0	59.0	60.0	61.0	62.0	63.0	64.0	65.0	66.0	67.0	67.0	67.0	68.0	70.0	75.0	85.0	101.0	123.0	147.0	173.0	196.0	213.0	223.0	225.0	222.0	214.0	203.0	191.0	179.0	168.0	158.0	150.0	142.0	136.0	130.0	126.0	122.0	119.0	118.0	117.0	116.0	115.0	113.0	111.0	108.0	104.0	99.0	93.0	88.0	82.0	77.0	72.0	68.0	65.0	62.0	59.0	57.0	56.0	55.0	55.0	55.0	56.0	57.0	58.0	59.0	60.0	61.0	62.0	62.0	63.0	63.0	63.0	63.0	63.0	63.0	63.0	62.0	62.0	62.0	62.0	63.0	64.0	64.0	65.0	66.0	66.0	66.0	66.0	67.0	68.0	71.0	78.0	91.0	110.0	134.0	162.0	189.0	212.0	227.0	235.0	235.0	229.0	219.0	207.0	195.0	183.0	173.0	165.0	158.0	153.0	147.0	141.0	136.0	131.0	127.0	125.0	123.0	121.0	120.0	118.0	115.0	111.0	106.0	101.0	95.0	90.0	84.0	80.0	75.0	71.0	67.0	64.0	61.0	58.0	56.0	55.0	54.0	54.0	55.0	55.0	56.0	57.0	58.0	58.0	58.0	59.0	59.0	59.0	59.0	58.0	58.0	57.0	57.0	58.0	59.0	60.0	61.0	62.0	63.0	64.0	65.0	65.0	66.0	66.0	67.0	67.0	68.0	69.0	72.0	79.0	89.0	106.0	127.0	152.0	177.0	198.0	214.0	222.0	223.0	218.0	208.0	196.0	183.0	170.0	160.0	152.0	145.0	140.0	135.0	130.0	127.0	124.0	121.0	119.0	118.0	117.0	115.0	112.0	109.0	106.0	102.0	97.0	91.0	86.0	81.0	76.0	72.0	68.0	65.0	62.0	60.0	58.0	57.0	57.0	57.0	57.0	58.0	58.0	59.0	60.0	60.0	60.0	60.0	59.0	59.0	58.0	57.0	57.0	57.0	57.0	57.0	57.0	58.0	60.0	61.0	63.0	63.0	63.0	62.0	62.0	62.0	64.0	68.0	74.0	85.0	100.0	120.0	144.0	172.0	197.0	218.0	231.0	236.0	234.0	225.0	212.0	197.0	182.0	170.0	160.0	152.0	147.0	144.0	143.0	142.0	142.0	143.0	143.0	144.0	143.0	141.0	137.0	132.0	126.0	119.0	112.0	105.0	98.0	92.0	86.0	80.0	76.0	72.0	70.0	70.0	70.0	71.0	72.0	72.0	72.0	72.0	71.0	69.0	66.0	63.0	60.0	56.0	53.0	50.0	47.0	45.0	43.0	42.0	41.0	40.0	39.0	39.0	39.0	39.0	39.0	40.0	41.0	41.0	43.0	45.0	50.0	59.0	73.0	94.0	118.0	142.0	166.0	184.0	195.0	199.0	196.0	189.0	178.0	166.0	153.0	142.0	132.0	124.0	116.0	110.0	104.0	99.0	96.0	94.0	93.0	94.0	96.0	99.0	101.0	102.0	102.0	101.0	98.0	94.0	90.0	85.0	80.0	75.0	71.0	67.0	63.0	61.0	60.0	60.0	60.0	60.0	59.0	58.0	57.0	55.0	54.0	53.0	53.0	54.0	56.0	59.0	61.0	64.0	66.0	68.0	70.0	72.0	73.0	74.0	74.0	73.0	72.0	70.0	68.0	66.0	65.0	66.0	70.0	80.0	98.0	122.0	150.0	180.0	207.0	227.0	239.0	241.0	237.0	227.0	213.0	198.0	184.0	170.0	160.0	151.0	145.0	140.0	135.0	131.0	127.0	123.0	120.0	117.0	115.0	113.0	110.0	107.0	104.0	100.0	95.0	91.0	86.0	81.0	76.0	71.0	66.0	62.0	58.0	54.0	51.0	48.0	47.0	46.0	46.0	46.0	46.0	47.0	48.0	48.0	48.0	48.0	48.0	48.0	48.0	49.0	50.0	51.0	52.0	53.0	54.0	54.0	54.0	55.0	55.0	55.0	54.0	54.0	55.0	58.0	64.0	76.0	95.0	118.0	144.0	170.0	192.0	206.0	213.0	212.0	205.0	195.0	181.0	168.0	154.0	143.0	133.0	126.0	119.0	113.0	108.0	104.0	101.0	100.0	99.0	100.0	101.0	102.0	103.0	103.0	102.0	100.0	97.0	93.0	89.0	84.0	79.0	74.0	69.0	66.0	63.0	60.0	58.0	56.0	55.0	55.0	55.0	55.0	56.0	57.0	58.0	59.0	59.0	60.0	60.0	61.0	61.0	62.0	62.0	61.0	61.0	60.0	59.0	58.0	57.0	58.0	61.0	69.0	83.0	102.0	126.0	151.0	174.0	192.0	204.0	208.0	206.0	199.0	190.0	178.0	167.0	157.0	148.0	141.0	136.0	131.0	127.0	122.0	117.0	113.0	110.0	107.0	105.0	104.0	103.0	102.0	100.0	98.0	95.0	92.0	88.0	84.0	80.0	75.0	70.0	66.0	62.0	58.0	55.0	52.0	50.0	49.0	49.0	49.0	50.0	50.0	51.0	52.0	53.0	54.0	55.0	55.0	56.0	56.0	57.0	58.0	59.0	59.0	60.0	60.0	60.0	59.0	59.0	60.0	64.0	73.0	88.0	108.0	131.0	155.0	177.0	193.0	203.0	206.0	203.0	195.0	185.0	174.0	163.0	153.0	145.0	138.0	133.0	128.0	125.0	121.0	117.0	115.0	112.0	111.0	110.0	110.0	109.0	109.0	108.0	106.0	103.0	100.0	96.0	92.0	88.0	84.0	80.0	76.0	73.0	71.0	69.0	67.0	65.0	63.0	61.0	59.0	57.0	57.0	56.0	57.0	57.0	57.0	58.0	58.0	58.0	58.0	58.0	58.0	58.0	58.0	58.0	58.0	57.0	57.0	57.0	57.0	58.0	59.0	63.0	72.0	87.0	107.0	130.0	154.0	175.0	190.0	198.0	200.0	196.0	188.0	178.0	166.0	155.0	145.0	137.0	130.0	126.0	122.0	119.0	116.0	114.0	112.0	112.0	112.0	113.0	114.0	114.0	114.0	113.0	111.0	109.0	106.0	103.0	99.0	96.0	92.0	89.0	85.0	82.0	80.0	78.0	76.0	74.0	73.0	72.0	71.0	70.0	70.0	70.0	70.0	69.0	69.0	69.0	69.0	69.0	69.0	69.0	68.0	67.0	66.0	64.0	63.0	62.0	61.0	60.0	60.0	61.0	64.0	73.0	87.0	106.0	127.0	149.0	168.0	182.0	189.0	190.0	185.0	178.0	168.0	157.0	147.0	138.0	130.0	125.0	121.0	117.0	114.0	112.0	110.0	109.0	109.0	109.0	110.0	110.0	110.0	110.0	108.0	106.0	103.0	100.0	96.0	92.0	89.0	85.0	81.0	77.0	74.0	71.0	68.0	66.0	65.0	66.0	67.0	69.0	71.0	74.0	76.0	77.0	79.0	80.0	80.0	81.0	81.0	82.0	82.0	83.0	83.0	84.0	86.0	88.0	90.0	91.0	93.0	94.0	95.0	95.0	96.0	98.0	104.0	114.0	128.0	148.0	169.0	190.0	208.0	220.0	226.0	225.0	219.0	209.0	199.0	188.0	180.0	173.0	169.0	167.0	165.0	165.0	164.0	164.0	164.0	164.0	165.0	165.0	164.0	164.0	162.0	161.0	159.0	157.0	155.0	153.0	150.0	147.0	143.0	138.0	133.0	128.0	125.0	121.0	116.0	112.0	108.0	104.0	100.0	97.0	94.0	93.0	92.0	90.0	89.0	86.0	84.0	81.0	78.0	75.0	71.0	68.0	65.0	62.0	59.0	56.0	53.0	49.0	46.0	43.0	40.0	36.0	31.0	27.0	24.0	24.0	29.0	39.0	52.0	67.0	80.0	89.0	94.0	94.0	90.0	83.0	75.0	67.0	59.0	52.0	46.0	42.0	39.0	36.0	34.0	33.0	33.0	34.0	36.0	40.0	45.0	51.0	55.0	58.0	60.0	61.0	61.0	60.0	58.0	55.0	53.0	50.0	47.0	44.0	42.0	41.0	40.0	40.0	41.0	42.0	43.0	44.0	46.0	47.0	48.0	50.0	52.0	53.0	55.0	57.0	58.0	60.0	62.0	64.0	66.0	68.0	69.0	71.0	72.0	73.0	74.0	74.0	76.0	78.0	83.0	93.0	108.0	127.0	151.0	174.0	195.0	210.0	219.0	222.0	219.0	213.0	203.0	193.0	183.0	174.0	166.0	160.0	155.0	151.0	147.0	144.0	141.0	139.0	137.0	137.0	136.0	135.0	134.0	133.0	131.0	128.0	126.0	122.0	117.0	112.0	107.0	102.0	98.0	93.0	90.0	87.0	85.0	83.0	81.0	80.0	79.0	79.0	78.0	78.0	78.0	78.0	78.0	78.0	79.0	79.0	79.0	79.0	79.0	79.0	78.0	77.0	77.0	76.0	75.0	75.0	74.0	73.0	71.0	68.0	66.0	63.0	63.0	66.0	74.0	88.0	108.0	129.0	153.0	174.0	190.0	200.0	203.0	201.0	196.0	187.0	177.0	167.0	158.0	150.0	143.0	137.0	132.0	128.0	125.0	123.0	122.0	122.0	123.0	124.0	125.0	125.0	124.0	122.0	119.0	115.0	110.0	104.0	99.0	94.0	89.0	85.0	82.0	79.0	76.0	73.0	71.0	69.0	68.0	67.0	66.0	65.0	65.0	66.0	66.0	66.0	67.0	67.0	67.0	67.0	67.0	66.0	66.0	66.0	66.0	66.0	66.0	65.0	65.0	65.0	65.0	65.0	64.0	64.0	64.0	65.0	68.0	75.0	88.0	107.0	129.0	154.0	177.0	195.0	207.0	212.0	211.0	205.0	196.0	185.0	173.0	161.0	151.0	143.0	136.0	129.0	125.0	120.0	117.0	114.0	113.0	113.0	114.0	115.0	116.0	116.0	115.0	113.0	110.0	105.0	100.0	95.0	90.0	84.0	79.0	75.0	71.0	68.0	65.0	63.0	62.0	62.0	62.0	62.0	63.0	64.0	65.0	66.0	66.0	67.0	67.0	67.0	67.0	67.0	67.0	67.0	67.0	68.0	68.0	68.0	68.0	69.0	69.0	68.0	67.0	66.0	65.0	64.0	65.0	70.0	79.0	94.0	115.0	138.0	163.0	186.0	204.0	215.0	219.0	216.0	209.0	198.0	186.0	174.0	163.0	154.0	148.0	143.0	139.0	135.0	131.0	127.0	125.0	122.0	120.0	119.0	118.0	117.0	117.0	115.0	113.0	111.0	107.0	103.0	98.0	94.0	89.0	85.0	81.0	77.0	74.0	70.0	68.0	65.0	63.0	62.0	61.0	61.0	61.0	60.0	60.0	60.0	59.0	59.0	59.0	59.0	58.0	58.0	58.0	58.0	58.0	58.0	57.0	57.0	57.0	57.0	57.0	56.0	56.0	56.0	56.0	56.0	58.0	62.0	71.0	85.0	104.0	126.0	148.0	169.0	184.0	193.0	196.0	192.0	185.0	174.0	162.0	150.0	139.0	129.0	121.0	114.0	108.0	103.0	100.0	98.0	97.0	98.0	100.0	102.0	104.0	105.0	106.0	105.0	103.0	99.0	96.0	91.0	87.0	83.0	78.0	74.0	70.0	66.0	62.0	59.0	56.0	55.0	54.0	53.0	54.0	55.0	56.0	58.0	60.0	62.0	64.0	66.0	67.0	68.0	69.0	69.0	69.0	69.0	69.0	69.0	68.0	67.0	66.0	65.0	65.0	65.0	67.0	72.0	81.0	97.0	117.0	140.0	164.0	185.0	200.0	209.0	211.0	208.0	200.0	190.0	179.0	168.0	159.0	152.0	147.0	142.0	137.0	132.0	127.0	123.0	119.0	117.0	115.0	115.0	115.0	114.0	113.0	111.0	108.0	103.0	97.0	92.0	86.0	81.0	77.0	73.0	70.0	67.0	64.0	63.0	62.0	62.0	63.0	63.0	63.0	63.0	63.0	63.0	64.0	64.0	65.0	65.0	66.0	65.0	64.0	63.0	63.0	62.0	62.0	61.0	60.0	60.0	59.0	58.0	58.0	57.0	57.0	57.0	60.0	67.0	80.0	99.0	123.0	149.0	174.0	195.0	210.0	217.0	216.0	210.0	199.0	186.0	172.0	159.0	148.0	139.0	132.0	127.0	123.0	119.0	115.0	112.0	109.0	108.0	107.0	106.0	105.0	104.0	103.0	100.0	97.0	94.0	90.0	86.0	82.0	78.0	74.0	70.0	66.0	63.0	60.0	58.0	56.0	55.0	55.0	55.0	55.0	56.0	57.0	58.0	59.0	60.0	60.0	60.0	61.0	61.0	61.0	62.0	62.0	63.0	63.0	63.0	64.0	64.0	63.0	63.0	64.0	64.0	64.0	63.0	63.0	63.0	63.0	65.0	70.0	80.0	96.0	118.0	143.0	168.0	191.0	208.0	217.0	219.0	215.0	206.0	193.0	180.0	167.0	155.0	144.0	136.0	128.0	123.0	118.0	114.0	111.0	109.0	108.0	108.0	108.0	108.0	108.0	107.0	105.0	102.0	99.0	95.0	90.0	86.0	81.0	77.0	73.0	69.0	65.0	62.0	60.0	58.0	57.0	56.0	56.0	56.0	57.0	57.0	58.0	59.0	59.0	60.0	61.0	61.0	61.0	62.0	62.0	61.0	61.0	61.0	61.0	61.0	61.0	62.0	63.0	64.0	65.0	65.0	66.0	67.0	67.0	68.0	68.0	68.0	70.0	75.0	84.0	99.0	119.0	143.0	170.0	194.0	212.0	224.0	227.0	224.0	215.0	203.0	190.0	176.0	163.0	151.0	142.0	134.0	127.0	123.0	118.0	115.0	114.0	114.0	115.0	117.0	118.0	119.0	119.0	117.0	114.0	110.0	105.0	100.0	94.0	89.0	84.0	79.0	76.0	72.0	69.0	67.0	65.0	64.0	63.0	62.0	62.0	61.0	62.0	62.0	62.0	62.0	62.0	62.0	62.0	62.0	62.0	62.0	62.0	61.0	61.0	60.0	60.0	60.0	60.0	61.0	61.0	62.0	63.0	63.0	64.0	64.0	64.0	66.0	69.0	76.0	89.0	108.0	131.0	158.0	185.0	208.0	224.0	233.0	234.0	230.0	221.0	210.0	197.0	184.0	173.0	163.0	155.0	148.0	142.0	137.0	132.0	128.0	125.0	123.0	122.0	122.0	121.0	121.0	119.0	116.0	112.0	107.0	101.0	94.0	87.0	80.0	73.0	67.0	62.0	58.0	55.0	53.0	51.0	50.0	50.0	50.0	52.0	53.0	55.0	56.0	58.0	59.0	60.0	60.0	61.0	61.0	60.0	60.0	59.0	58.0	57.0	57.0	56.0	56.0	55.0	55.0	54.0	54.0	53.0	53.0	53.0	53.0	55.0	58.0	64.0	73.0	87.0	106.0	131.0	159.0	188.0	214.0	235.0	249.0	254.0	254.0	251.0	240.0	227.0	213.0	200.0	187.0	176.0	167.0	158.0	150.0	144.0	140.0	137.0	136.0	135.0	135.0	133.0	130.0	126.0	120.0	114.0	106.0	99.0	91.0	85.0	79.0	74.0	71.0	68.0	66.0	65.0	64.0	63.0	62.0	61.0	60.0	59.0	57.0	55.0	53.0	51.0	48.0	46.0	44.0	43.0	41.0	41.0	40.0	39.0	39.0	38.0	37.0	37.0	37.0	36.0	36.0	36.0	36.0	37.0	39.0	42.0	48.0	58.0	74.0	96.0	121.0	147.0	171.0	190.0	202.0	207.0	205.0	197.0	185.0	171.0	157.0	143.0	130.0	121.0	111.0	104.0	98.0	94.0	92.0	92.0	95.0	99.0	103.0	108.0	111.0	114.0	115.0	114.0	111.0	107.0	102.0	96.0	91.0	86.0	81.0	77.0	73.0	69.0	66.0	62.0	58.0	53.0	49.0	45.0	42.0	40.0	41.0	44.0	49.0	56.0	64.0	72.0	80.0	87.0	93.0	98.0	101.0	102.0	103.0	102.0	100.0	98.0	95.0	92.0	88.0	83.0	77.0	71.0	67.0	66.0	72.0	86.0	108.0	134.0	161.0	184.0	201.0	208.0	206.0	198.0	184.0	168.0	152.0	137.0	125.0	114.0	107.0	101.0	98.0	97.0	99.0	102.0	107.0	112.0	117.0	121.0	123.0	123.0	121.0	117.0	111.0	104.0	98.0	91.0	85.0	80.0	76.0	73.0	70.0	69.0	67.0	67.0	66.0	67.0	68.0	68.0	69.0	70.0	71.0	72.0	72.0	73.0	73.0	73.0	73.0	73.0	73.0	73.0	73.0	72.0	72.0	72.0	72.0	73.0	74.0	76.0	83.0	94.0	111.0	132.0	158.0	183.0	203.0	217.0	223.0	222.0	215.0	205.0	192.0	179.0	166.0	154.0	143.0	134.0	127.0	119.0	112.0	105.0	99.0	95.0	93.0	93.0	95.0	98.0	100.0	100.0	99.0	95.0	90.0	84.0	78.0	72.0	67.0	62.0	57.0	54.0	51.0	49.0	47.0	45.0	44.0	43.0	43.0	43.0	43.0	44.0	45.0	46.0	47.0	48.0	49.0	50.0	51.0	52.0	53.0	53.0	54.0	54.0	54.0	54.0	55.0	60.0	68.0	84.0	105.0	129.0	155.0	178.0	195.0	205.0	207.0	203.0	194.0	183.0	170.0	157.0	146.0	136.0	128.0	123.0	117.0	111.0	106.0	102.0	100.0	99.0	99.0	99.0	100.0	100.0	100.0	98.0	96.0	93.0	89.0	85.0	81.0	76.0	71.0	67.0	62.0	58.0	55.0	52.0	50.0	48.0	47.0	46.0	45.0	44.0	44.0	43.0	42.0	42.0	43.0	43.0	45.0	47.0	49.0	51.0	53.0	54.0	55.0	56.0	57.0	59.0	64.0	72.0	86.0	105.0	127.0	151.0	173.0	191.0	201.0	205.0	202.0	194.0	183.0	170.0	157.0	144.0	134.0	126.0	118.0	112.0	106.0	102.0	98.0	97.0	97.0	99.0	101.0	104.0	106.0	108.0	108.0	107.0	105.0	101.0	97.0	92.0	87.0	82.0	77.0	72.0	68.0	65.0	62.0	60.0	59.0	58.0	57.0	57.0	57.0	57.0	58.0	59.0	59.0	60.0	61.0	63.0	64.0	65.0	66.0	66.0	66.0	66.0	67.0	70.0	75.0	86.0	103.0	124.0	148.0	173.0	194.0	210.0	218.0	219.0	214.0	205.0	192.0	179.0	166.0	154.0	144.0	137.0	130.0	127.0	123.0	119.0	115.0	112.0	109.0	107.0	107.0	107.0	106.0	106.0	105.0	103.0	101.0	98.0	94.0	90.0	86.0	82.0	79.0	75.0	72.0	69.0	66.0	64.0	61.0	59.0	58.0	57.0	56.0	55.0	55.0	55.0	54.0	54.0	54.0	54.0	53.0	53.0	53.0	52.0	51.0	51.0	51.0	52.0	54.0	60.0	70.0	87.0	109.0	134.0	161.0	184.0	202.0	213.0	216.0	213.0	205.0	194.0	181.0	168.0	156.0	145.0	137.0	131.0	127.0	123.0	119.0	115.0	111.0	108.0	107.0	106.0	105.0	105.0	104.0	104.0	102.0	100.0	97.0	94.0	90.0	86.0	82.0	77.0	73.0	70.0	66.0	63.0	61.0	59.0	57.0	56.0	55.0	55.0	55.0	56.0	57.0	57.0	58.0	58.0	58.0	58.0	59.0	59.0	59.0	60.0	61.0	62.0	63.0	64.0	68.0	76.0	90.0	110.0	133.0	159.0	183.0	202.0	214.0	218.0	215.0	207.0	196.0	182.0	169.0	156.0	145.0	135.0	127.0	120.0	114.0	108.0	103.0	100.0	98.0	98.0	98.0	99.0	100.0	101.0	102.0	103.0	104.0	103.0	102.0	100.0	96.0	91.0	86.0	79.0	72.0	66.0	61.0	56.0	53.0	51.0	50.0	49.0	49.0	49.0	49.0	50.0	50.0	51.0	51.0	52.0	52.0	52.0	52.0	52.0	52.0	52.0	52.0	52.0	53.0	56.0	63.0	76.0	95.0	120.0	147.0	175.0	198.0	214.0	222.0	223.0	218.0	208.0	195.0	181.0	167.0	156.0	146.0	138.0	132.0	127.0	123.0	118.0	113.0	109.0	107.0	106.0	105.0	106.0	106.0	105.0	103.0	100.0	96.0	92.0	86.0	81.0	75.0	69.0	64.0	58.0	53.0	48.0	43.0	39.0	36.0	34.0	32.0	31.0	30.0	30.0	30.0	30.0	30.0	31.0	33.0	35.0	36.0	38.0	40.0	42.0	43.0	44.0	43.0	42.0	41.0	41.0	43.0	48.0	60.0	78.0	102.0	130.0	158.0	183.0	201.0	212.0	216.0	213.0	206.0	196.0	185.0	174.0	164.0	157.0	151.0	147.0	143.0	138.0	132.0	126.0	121.0	116.0	114.0	113.0	113.0	114.0	115.0	115.0	114.0	112.0	109.0	106.0	102.0	98.0	94.0	89.0	85.0	81.0	77.0	73.0	69.0	65.0	62.0	60.0	58.0	57.0	56.0	55.0	55.0	55.0	55.0	54.0	54.0	54.0	54.0	54.0	54.0	54.0	54.0	54.0	54.0	55.0	56.0	57.0	58.0	60.0	65.0	75.0	90.0	112.0	136.0	162.0	185.0	203.0	213.0	217.0	214.0	206.0	195.0	182.0	169.0	157.0	147.0	139.0	132.0	127.0	122.0	117.0	113.0	111.0	110.0	110.0	111.0	113.0	114.0	115.0	114.0	113.0	110.0	107.0	103.0	99.0	94.0	89.0	85.0	80.0	76.0	72.0	69.0	67.0	64.0	62.0	61.0	60.0	60.0	59.0	59.0	59.0	59.0	59.0	59.0	59.0	60.0	60.0	61.0	61.0	62.0	62.0	61.0	61.0	61.0	62.0	65.0	71.0	83.0	100.0	123.0	148.0	174.0	195.0	211.0	218.0	219.0	214.0	204.0	191.0	178.0	164.0	55.0	55.0	55.0	55.0	56.0	56.0	57.0	58.0	59.0	59.0	60.0	61.0	61.0	61.0	62.0	62.0	62.0	62.0	62.0	62.0	64.0	68.0	77.0	91.0	112.0	137.0	165.0	190.0	211.0	223.0	228.0	226.0	218.0	206.0	192.0	178.0	165.0	153.0	144.0	136.0	129.0	125.0	120.0	116.0	113.0	111.0	110.0	110.0	111.0	111.0	110.0	109.0	107.0	104.0	101.0	97.0	92.0	88.0	83.0	79.0	74.0	70.0	66.0	63.0	60.0	58.0	56.0	55.0	54.0	54.0	54.0	54.0	54.0	54.0	55.0	55.0	56.0	56.0	57.0	57.0	57.0	57.0	58.0	58.0	59.0	59.0	60.0	61.0	61.0	62.0	64.0	69.0	78.0	92.0	111.0	134.0	159.0	182.0	200.0	210.0	214.0	211.0	202.0	190.0	177.0	162.0	149.0	136.0	126.0	116.0	108.0	102.0	97.0	95.0	95.0	96.0	99.0	102.0	106.0	108.0	110.0	111.0	110.0	107.0	104.0	99.0	94.0	89.0	84.0	80.0	75.0	71.0	67.0	64.0	62.0	60.0	59.0	58.0	58.0	58.0	59.0	59.0	60.0	61.0	62.0	63.0	64.0	65.0	65.0	66.0	67.0	67.0	67.0	67.0	67.0	67.0	67.0	69.0	75.0	87.0	105.0	129.0	157.0	185.0	210.0	228.0	238.0	240.0	235.0	225.0	211.0	197.0	184.0	171.0	161.0	153.0	147.0	142.0	138.0	133.0	128.0	125.0	121.0	118.0	115.0	113.0	112.0	110.0	109.0	106.0	103.0	100.0	96.0	91.0	86.0	81.0	76.0	71.0	67.0	63.0	60.0	57.0	55.0	53.0	51.0	50.0	49.0	48.0	48.0	48.0	48.0	48.0	49.0	49.0	49.0	49.0	50.0	50.0	50.0	50.0	50.0	50.0	50.0	49.0	49.0	49.0	50.0	54.0	63.0	78.0	100.0	127.0	155.0	182.0	202.0	215.0	220.0	218.0	210.0	198.0	185.0	172.0	160.0	150.0	142.0	136.0	131.0	127.0	122.0	118.0	114.0	111.0	108.0	107.0	106.0	105.0	104.0	103.0	100.0	97.0	94.0	89.0	85.0	80.0	76.0	71.0	67.0	63.0	60.0	57.0	54.0	52.0	50.0	49.0	49.0	49.0	50.0	51.0	52.0	53.0	54.0	55.0	55.0	56.0	56.0	57.0	58.0	58.0	59.0	60.0	61.0	61.0	62.0	62.0	63.0	63.0	63.0	63.0	65.0	70.0	80.0	96.0	118.0	144.0	172.0	197.0	217.0	229.0	233.0	229.0	220.0	208.0	194.0	181.0	169.0	158.0	150.0	144.0	138.0	133.0	128.0	124.0	119.0	116.0	113.0	111.0	110.0	108.0	106.0	103.0	100.0	97.0	93.0	89.0	85.0	81.0	77.0	73.0	69.0	65.0	61.0	58.0	55.0	53.0	51.0	50.0	50.0	50.0	51.0	51.0	52.0	53.0	54.0	55.0	55.0	56.0	57.0	57.0	58.0	58.0	58.0	59.0	59.0	59.0	58.0	58.0	57.0	57.0	58.0	59.0	61.0	66.0	75.0	90.0	110.0	133.0	159.0	182.0	200.0	212.0	215.0	212.0	203.0	191.0	177.0	163.0	150.0	139.0	129.0	121.0	114.0	108.0	105.0	105.0	108.0	113.0	117.0	120.0	121.0	120.0	117.0	113.0	109.0	104.0	99.0	94.0	88.0	81.0	75.0	69.0	64.0	59.0	56.0	53.0	52.0	51.0	51.0	51.0	51.0	51.0	51.0	51.0	52.0	52.0	52.0	53.0	53.0	54.0	54.0	55.0	55.0	55.0	55.0	55.0	55.0	55.0	55.0	56.0	57.0	62.0	72.0	88.0	111.0	137.0	167.0	193.0	214.0	226.0	231.0	227.0	218.0	206.0	192.0	178.0	166.0	157.0	150.0	144.0	139.0	135.0	130.0	127.0	122.0	119.0	116.0	114.0	112.0	111.0	110.0	108.0	105.0	102.0	98.0	94.0	88.0	83.0	78.0	73.0	68.0	63.0	59.0	56.0	53.0	51.0	50.0	50.0	49.0	49.0	49.0	50.0	50.0	50.0	51.0	52.0	52.0	53.0	54.0	55.0	56.0	57.0	57.0	57.0	57.0	57.0	57.0	57.0	56.0	56.0	57.0	60.0	67.0	81.0	101.0	127.0	157.0	186.0	211.0	227.0	235.0	235.0	228.0	217.0	203.0	189.0	175.0	163.0	154.0	146.0	140.0	134.0	128.0	123.0	118.0	115.0	112.0	111.0	110.0	110.0	109.0	107.0	104.0	101.0	97.0	93.0	88.0	83.0	78.0	73.0	68.0	63.0	59.0	55.0	52.0	49.0	48.0	47.0	46.0	46.0	47.0	47.0	48.0	49.0	50.0	51.0	52.0	54.0	55.0	57.0	58.0	59.0	60.0	60.0	60.0	60.0	59.0	59.0	58.0	57.0	56.0	56.0	56.0	57.0	60.0	68.0	83.0	103.0	128.0	156.0	183.0	204.0	218.0	223.0	220.0	211.0	199.0	184.0	169.0	156.0	144.0	133.0	125.0	117.0	110.0	104.0	100.0	98.0	98.0	100.0	103.0	106.0	109.0	110.0	111.0	109.0	107.0	103.0	99.0	94.0	88.0	82.0	77.0	71.0	66.0	62.0	58.0	55.0	53.0	52.0	52.0	52.0	53.0	54.0	55.0	56.0	57.0	58.0	58.0	59.0	59.0	59.0	59.0	59.0	60.0	60.0	60.0	60.0	60.0	60.0	60.0	59.0	59.0	59.0	61.0	65.0	74.0	90.0	113.0	140.0	171.0	200.0	223.0	238.0	245.0	243.0	234.0	222.0	207.0	192.0	178.0	167.0	157.0	149.0	143.0	137.0	132.0	127.0	123.0	119.0	115.0	113.0	112.0	111.0	110.0	109.0	106.0	103.0	99.0	95.0	90.0	85.0	80.0	75.0	71.0	66.0	62.0	59.0	56.0	53.0	52.0	50.0	50.0	50.0	50.0	50.0	51.0	52.0	53.0	53.0	54.0	55.0	55.0	56.0	56.0	56.0	56.0	57.0	57.0	57.0	58.0	58.0	58.0	58.0	58.0	58.0	58.0	58.0	60.0	64.0	74.0	90.0	113.0	142.0	173.0	203.0	227.0	242.0	248.0	245.0	236.0	222.0	206.0	190.0	175.0	162.0	152.0	144.0	137.0	132.0	127.0	123.0	118.0	115.0	113.0	112.0	111.0	110.0	109.0	107.0	104.0	101.0	97.0	92.0	87.0	82.0	77.0	72.0	68.0	63.0	60.0	56.0	53.0	51.0	49.0	48.0	48.0	48.0	48.0	49.0	50.0	51.0	52.0	53.0	54.0	55.0	55.0	55.0	56.0	56.0	57.0	57.0	58.0	58.0	59.0	60.0	60.0	60.0	60.0	60.0	61.0	61.0	62.0	65.0	72.0	85.0	105.0	130.0	160.0	189.0	214.0	232.0	241.0	241.0	234.0	222.0	208.0	192.0	176.0	162.0	150.0	139.0	131.0	125.0	119.0	114.0	111.0	110.0	110.0	111.0	112.0	114.0	114.0	114.0	112.0	109.0	104.0	98.0	92.0	85.0	79.0	73.0	67.0	63.0	59.0	55.0	53.0	51.0	49.0	48.0	48.0	49.0	50.0	51.0	52.0	53.0	54.0	55.0	56.0	57.0	58.0	58.0	59.0	60.0	60.0	61.0	61.0	61.0	62.0	61.0	61.0	61.0	60.0	60.0	61.0	67.0	78.0	96.0	121.0	150.0	182.0	211.0	233.0	246.0	249.0	245.0	235.0	220.0	205.0	189.0	175.0	164.0	155.0	148.0	142.0	137.0	132.0	128.0	124.0	120.0	116.0	114.0	112.0	110.0	108.0	106.0	102.0	99.0	95.0	91.0	86.0	82.0	77.0	72.0	68.0	64.0	60.0	57.0	54.0	52.0	50.0	48.0	48.0	47.0	48.0	48.0	49.0	50.0	51.0	52.0	53.0	53.0	54.0	54.0	55.0	55.0	55.0	56.0	57.0	57.0	58.0	58.0	59.0	58.0	58.0	58.0	57.0	57.0	57.0	61.0	69.0	84.0	106.0	134.0	165.0	195.0	220.0	237.0	244.0	242.0	234.0	222.0	207.0	191.0	177.0	165.0	155.0	147.0	141.0	135.0	130.0	126.0	122.0	118.0	116.0	115.0	114.0	113.0	112.0	110.0	107.0	104.0	99.0	95.0	89.0	84.0	79.0	74.0	69.0	65.0	61.0	57.0	54.0	52.0	51.0	49.0	49.0	48.0	48.0	49.0	50.0	51.0	52.0	53.0	54.0	55.0	55.0	56.0	56.0	56.0	56.0	57.0	57.0	57.0	57.0	57.0	57.0	57.0	58.0	58.0	58.0	58.0	58.0	58.0	60.0	65.0	75.0	92.0	117.0	145.0	176.0	204.0	225.0	238.0	242.0	238.0	228.0	214.0	198.0	182.0	167.0	155.0	144.0	136.0	129.0	124.0	120.0	117.0	115.0	114.0	114.0	115.0	116.0	117.0	116.0	114.0	111.0	107.0	101.0	95.0	89.0	83.0	77.0	72.0	67.0	62.0	59.0	55.0	53.0	51.0	50.0	49.0	49.0	49.0	49.0	50.0	51.0	52.0	53.0	54.0	55.0	55.0	56.0	56.0	57.0	57.0	57.0	57.0	57.0	57.0	57.0	58.0	58.0	58.0	58.0	58.0	58.0	58.0	59.0	60.0	66.0	77.0	95.0	122.0	152.0	185.0	216.0	239.0	254.0	254.0	254.0	245.0	231.0	214.0	198.0	183.0	171.0	161.0	153.0	148.0	143.0	138.0	133.0	128.0	125.0	122.0	120.0	118.0	117.0	115.0	113.0	111.0	107.0	103.0	98.0	93.0	87.0	82.0	76.0	71.0	67.0	62.0	59.0	56.0	53.0	51.0	50.0	49.0	49.0	49.0	49.0	50.0	50.0	51.0	52.0	53.0	53.0	54.0	54.0	53.0	53.0	52.0	51.0	50.0	49.0	49.0	49.0	49.0	49.0	49.0	49.0	50.0	50.0	51.0	51.0	52.0	53.0	54.0	57.0	63.0	75.0	93.0	118.0	148.0	181.0	211.0	235.0	250.0	254.0	252.0	242.0	228.0	212.0	195.0	181.0	169.0	159.0	151.0	145.0	139.0	133.0	128.0	124.0	120.0	118.0	117.0	116.0	116.0	115.0	114.0	111.0	108.0	104.0	99.0	94.0	88.0	82.0	76.0	71.0	65.0	60.0	56.0	52.0	50.0	48.0	46.0	46.0	46.0	46.0	46.0	46.0	47.0	47.0	47.0	47.0	47.0	47.0	48.0	49.0	50.0	51.0	52.0	53.0	54.0	54.0	55.0	56.0	57.0	58.0	58.0	59.0	60.0	60.0	62.0	64.0	71.0	83.0	102.0	127.0	156.0	186.0	211.0	229.0	238.0	239.0	232.0	220.0	205.0	188.0	172.0	157.0	145.0	135.0	127.0	120.0	114.0	110.0	107.0	105.0	106.0	107.0	109.0	111.0	112.0	111.0	109.0	106.0	101.0	96.0	90.0	84.0	78.0	73.0	68.0	63.0	59.0	56.0	53.0	50.0	48.0	47.0	46.0	46.0	47.0	48.0	49.0	51.0	52.0	53.0	54.0	55.0	55.0	56.0	56.0	56.0	56.0	56.0	56.0	57.0	57.0	57.0	58.0	58.0	58.0	58.0	58.0	58.0	58.0	59.0	62.0	69.0	82.0	103.0	131.0	164.0	197.0	226.0	248.0	254.0	254.0	254.0	246.0	231.0	214.0	198.0	184.0	173.0	164.0	158.0	152.0	147.0	142.0	136.0	131.0	127.0	124.0	121.0	119.0	117.0	115.0	112.0	108.0	104.0	99.0	94.0	88.0	83.0	77.0	72.0	67.0	62.0	58.0	55.0	51.0	49.0	47.0	46.0	45.0	45.0	45.0	46.0	47.0	48.0	48.0	49.0	50.0	50.0	50.0	50.0	50.0	50.0	50.0	50.0	50.0	49.0	49.0	50.0	50.0	51.0	51.0	52.0	53.0	54.0	54.0	55.0	55.0	55.0	56.0	56.0	59.0	65.0	77.0	97.0	125.0	156.0	191.0	221.0	244.0	254.0	254.0	254.0	246.0	231.0	215.0	198.0	184.0	172.0	163.0	156.0	151.0	146.0	141.0	136.0	132.0	128.0	126.0	124.0	122.0	120.0	117.0	114.0	110.0	106.0	101.0	95.0	90.0	84.0	79.0	74.0	69.0	65.0	61.0	57.0	54.0	52.0	50.0	48.0	47.0	47.0	47.0	47.0	47.0	48.0	48.0	49.0	50.0	50.0	50.0	50.0	50.0	50.0	51.0	51.0	51.0	51.0	51.0	51.0	51.0	52.0	52.0	53.0	54.0	55.0	55.0	56.0	56.0	57.0	57.0	58.0	61.0	69.0	82.0	102.0	129.0	160.0	191.0	217.0	236.0	246.0	247.0	241.0	230.0	216.0	202.0	189.0	179.0	173.0	171.0	171.0	172.0	174.0	175.0	176.0	175.0	173.0	170.0	165.0	158.0	149.0	139.0	128.0	117.0	105.0	93.0	81.0	71.0	61.0	52.0	44.0	38.0	33.0	29.0	26.0	24.0	24.0	23.0	24.0	25.0	26.0	27.0	29.0	30.0	31.0	32.0	33.0	34.0	35.0	36.0	37.0	38.0	39.0	40.0	41.0	43.0	44.0	46.0	47.0	48.0	48.0	49.0	48.0	48.0	48.0	50.0	55.0	66.0	83.0	109.0	139.0	172.0	203.0	228.0	244.0	250.0	248.0	240.0	227.0	211.0	196.0	182.0	171.0	162.0	156.0	151.0	146.0	141.0	135.0	129.0	125.0	121.0	118.0	116.0	114.0	112.0	110.0	108.0	104.0	100.0	96.0	91.0	85.0	80.0	75.0	70.0	65.0	61.0	57.0	53.0	51.0	49.0	47.0	46.0	46.0	46.0	47.0	48.0	49.0	50.0	50.0	51.0	51.0	51.0	51.0	51.0	51.0	51.0	50.0	50.0	50.0	51.0	51.0	51.0	52.0	52.0	53.0	53.0	54.0	54.0	54.0	53.0	53.0	54.0	60.0	72.0	93.0	121.0	154.0	187.0	216.0	237.0	248.0	251.0	245.0	235.0	220.0	205.0	190.0	177.0	167.0	159.0	154.0	149.0	143.0	138.0	132.0	127.0	124.0	120.0	118.0	116.0	115.0	113.0	110.0	106.0	102.0	97.0	93.0	88.0	82.0	77.0	72.0	67.0	62.0	58.0	55.0	52.0	49.0	47.0	46.0	45.0	44.0	44.0	43.0	43.0	43.0	42.0	42.0	41.0	40.0	39.0	37.0	36.0	34.0	33.0	32.0	32.0	32.0	33.0	34.0	35.0	36.0	37.0	38.0	39.0	40.0	41.0	41.0	43.0	45.0	50.0	60.0	78.0	102.0	132.0	165.0	195.0	219.0	235.0	241.0	239.0	230.0	217.0	202.0	187.0	173.0	161.0	152.0	144.0	137.0	130.0	126.0	120.0	116.0	114.0	113.0	113.0	113.0	114.0	114.0	112.0	109.0	105.0	101.0	95.0	89.0	83.0	78.0	73.0	68.0	64.0	61.0	58.0	55.0	52.0	50.0	49.0	48.0	48.0	49.0	50.0	51.0	52.0	53.0	54.0	54.0	55.0	55.0	55.0	55.0	56.0	56.0	56.0	57.0	57.0	58.0	59.0	59.0	59.0	60.0	60.0	60.0	60.0	60.0	60.0	63.0	69.0	82.0	102.0	128.0	160.0	193.0	221.0	242.0	253.0	254.0	250.0	240.0	226.0	211.0	196.0	184.0	173.0	165.0	159.0	153.0	148.0	142.0	136.0	131.0	127.0	123.0	121.0	119.0	117.0	116.0	114.0	110.0	107.0	102.0	96.0	90.0	83.0	77.0	71.0	66.0	62.0	58.0	55.0	52.0	50.0	48.0	47.0	46.0	46.0	46.0	46.0	46.0	47.0	47.0	47.0	47.0	47.0	47.0	47.0	47.0	48.0	49.0	51.0	52.0	53.0	54.0	55.0	56.0	57.0	58.0	59.0	60.0	59.0	57.0	55.0	53.0	51.0	52.0	57.0	69.0	89.0	117.0	150.0	186.0	218.0	243.0	254.0	254.0	254.0	251.0	237.0	221.0	205.0	191.0	179.0	170.0	163.0	156.0	150.0	143.0	137.0	131.0	127.0	124.0	122.0	120.0	118.0	116.0	113.0	109.0	104.0	99.0	93.0	87.0	81.0	75.0	70.0	65.0	62.0	58.0	56.0	53.0	52.0	51.0	50.0	51.0	51.0	53.0	54.0	56.0	57.0	59.0	59.0	59.0	59.0	58.0	57.0	56.0	54.0	53.0	51.0	50.0	49.0	48.0	47.0	47.0	47.0	47.0	48.0	49.0	52.0	58.0	70.0	89.0	115.0	146.0	178.0	208.0	231.0	244.0	248.0	244.0	234.0	220.0	204.0	188.0	175.0	164.0	156.0	150.0	144.0	139.0	134.0	130.0	127.0	126.0	126.0	126.0	125.0	125.0	123.0	120.0	117.0	112.0	107.0	102.0	97.0	92.0	88.0	84.0	81.0	78.0	75.0	72.0	69.0	65.0	62.0	59.0	57.0	55.0	54.0	54.0	53.0	53.0	52.0	51.0	50.0	49.0	49.0	49.0	49.0	49.0	50.0	50.0	50.0	50.0	50.0	50.0	50.0	50.0	50.0	50.0	51.0	51.0	53.0	56.0	62.0	73.0	91.0	116.0	146.0	177.0	207.0	230.0	244.0	250.0	248.0	240.0	227.0	213.0	198.0	185.0	174.0	165.0	158.0	152.0	146.0	139.0	133.0	127.0	122.0	117.0	114.0	112.0	110.0	108.0	106.0	103.0	99.0	94.0	87.0	80.0	71.0	62.0	54.0	47.0	41.0	37.0	35.0	33.0	32.0	32.0	32.0	33.0	34.0	35.0	36.0	37.0	39.0	40.0	41.0	42.0	42.0	42.0	42.0	42.0	42.0	42.0	41.0	41.0	40.0	39.0	39.0	39.0	40.0	41.0	42.0	43.0	43.0	44.0	45.0	47.0	52.0	60.0	76.0	98.0	127.0	159.0	191.0	219.0	239.0	249.0	251.0	245.0	235.0	221.0	206.0	193.0	180.0	170.0	162.0	155.0	150.0	145.0	141.0	138.0	137.0	137.0	138.0	139.0	139.0	138.0	137.0	134.0	130.0	126.0	120.0	114.0	108.0	101.0	95.0	89.0	83.0	77.0	72.0	67.0	63.0	60.0	57.0	56.0	54.0	54.0	53.0	53.0	53.0	53.0	52.0	52.0	51.0	49.0	48.0	46.0	45.0	45.0	45.0	45.0	45.0	45.0	45.0	45.0	44.0	45.0	46.0	51.0	60.0	75.0	96.0	123.0	150.0	177.0	198.0	213.0	220.0	220.0	215.0	207.0	197.0	186.0	176.0	168.0	161.0	156.0	151.0	146.0	140.0	134.0	127.0	122.0	117.0	114.0	111.0	110.0	108.0	106.0	104.0	101.0	97.0	93.0	89.0	84.0	79.0	73.0	67.0	62.0	58.0	54.0	51.0	48.0	46.0	45.0	44.0	43.0	43.0	43.0	43.0	43.0	44.0	45.0	46.0	47.0	48.0	49.0	49.0	50.0	51.0	51.0	52.0	52.0	52.0	51.0	51.0	51.0	51.0	51.0	52.0	54.0	60.0	71.0	88.0	111.0	137.0	164.0	188.0	208.0	220.0	225.0	224.0	218.0	208.0	197.0	185.0	174.0	165.0	157.0	151.0	145.0	139.0	134.0	130.0	127.0	125.0	123.0	121.0	120.0	119.0	117.0	115.0	112.0	108.0	104.0	99.0	94.0	89.0	84.0	78.0	73.0	69.0	64.0	61.0	57.0	55.0	52.0	51.0	50.0	49.0	49.0	50.0	50.0	51.0	51.0	52.0	52.0	53.0	54.0	54.0	55.0	55.0	54.0	53.0	53.0	52.0	51.0	51.0	51.0	52.0	54.0	61.0	72.0	90.0	113.0	138.0	165.0	187.0	204.0	213.0	215.0	212.0	204.0	194.0	183.0	172.0	162.0	153.0	145.0	138.0	132.0	127.0	121.0	117.0	114.0	112.0	111.0	111.0	111.0	110.0	109.0	107.0	104.0	100.0	96.0	91.0	85.0	80.0	74.0	69.0	65.0	61.0	58.0	55.0	53.0	51.0	50.0	49.0	49.0	49.0	49.0	50.0	50.0	51.0	52.0	53.0	53.0	54.0	55.0	55.0	56.0	56.0	57.0	57.0	57.0	56.0	56.0	56.0	55.0	55.0	56.0	60.0	67.0	81.0	102.0	128.0	157.0	187.0	212.0	231.0	243.0	246.0	243.0	236.0	225.0	212.0	200.0	189.0	179.0	171.0	163.0	156.0	149.0	141.0	135.0	129.0	126.0	122.0	120.0	118.0	116.0	114.0	111.0	107.0	103.0	98.0	93.0	87.0	82.0	77.0	72.0	68.0	64.0	60.0	56.0	52.0	50.0	47.0	46.0	45.0	45.0	45.0	47.0	48.0	49.0	51.0	52.0	53.0	54.0	56.0	57.0	58.0	59.0	60.0	60.0	60.0	60.0	60.0	59.0	58.0	57.0	56.0	55.0	55.0	57.0	63.0	75.0	93.0	119.0	148.0	180.0	208.0	231.0	246.0	252.0	251.0	243.0	231.0	217.0	203.0	190.0	178.0	167.0	158.0	150.0	142.0	135.0	130.0	127.0	124.0	123.0	123.0	122.0	121.0	120.0	117.0	113.0	108.0	102.0	97.0	91.0	84.0	78.0	72.0	67.0	61.0	56.0	52.0	47.0	44.0	41.0	39.0	38.0	38.0	38.0	39.0	39.0	41.0	42.0	44.0	45.0	46.0	48.0	48.0	49.0	49.0	48.0	47.0	45.0	44.0	42.0	41.0	40.0	42.0	46.0	57.0	75.0	101.0	132.0	167.0	200.0	227.0	245.0	254.0	254.0	249.0	239.0	225.0	211.0	198.0	186.0	175.0	167.0	159.0	152.0	144.0	137.0	131.0	127.0	123.0	120.0	118.0	116.0	114.0	112.0	108.0	104.0	100.0	94.0	88.0	82.0	75.0	69.0	62.0	56.0	50.0	45.0	41.0	38.0	36.0	35.0	34.0	34.0	34.0	34.0	35.0	36.0	37.0	39.0	40.0	41.0	42.0	42.0	42.0	42.0	42.0	42.0	42.0	42.0	41.0	40.0	40.0	39.0	39.0	40.0	43.0	51.0	65.0	86.0	115.0	147.0	182.0	213.0	238.0	254.0	254.0	254.0	251.0	239.0	225.0	210.0	197.0	185.0	176.0	168.0	161.0	154.0	147.0	140.0	134.0	128.0	125.0	121.0	118.0	116.0	114.0	111.0	107.0	103.0	98.0	93.0	87.0	81.0	75.0	69.0	64.0	58.0	53.0	49.0	45.0	42.0	39.0	37.0	35.0	34.0	33.0	33.0	33.0	33.0	34.0	34.0	35.0	35.0	35.0	35.0	35.0	34.0	34.0	34.0	33.0	33.0	32.0	32.0	31.0	31.0	32.0	33.0	36.0	43.0	56.0	77.0	107.0	142.0	180.0	215.0	242.0	254.0	254.0	254.0	246.0	231.0	216.0	203.0	192.0	184.0	178.0	173.0	168.0	162.0	156.0	148.0	140.0	134.0	128.0	125.0	122.0	120.0	118.0	115.0	111.0	107.0	102.0	96.0	90.0	82.0	75.0	67.0	60.0	54.0	48.0	44.0	40.0	38.0	36.0	34.0	33.0	33.0	33.0	33.0	33.0	33.0	34.0	35.0	37.0	40.0	43.0	46.0	49.0	53.0	56.0	60.0	63.0	66.0	69.0	71.0	74.0	77.0	82.0	91.0	107.0	129.0	159.0	193.0	227.0	254.0	254.0	254.0	254.0	254.0	254.0	254.0	250.0	234.0	218.0	204.0	191.0	179.0	167.0	157.0	146.0	137.0	130.0	126.0	123.0	120.0	118.0	116.0	113.0	109.0	104.0	97.0	90.0	82.0	74.0	65.0	55.0	45.0	35.0	25.0	16.0	7.0	0.0	0.0	0.0	0.0	0.0	0.0	0.0	0.0	0.0	0.0	0.0	0.0	0.0	0.0	3.0	6.0	8.0	10.0	11.0	12.0	12.0	13.0	13.0	13.0	15.0	19.0	29.0	46.0	72.0	106.0	144.0	183.0	218.0	245.0	254.0	254.0	254.0	254.0	254.0	245.0	235.0	226.0	219.0	212.0	205.0	198.0	190.0	181.0	172.0	163.0	154.0	146.0	139.0	133.0	128.0	126.0	122.0	119.0	115.0	110.0	105.0	99.0	92.0	86.0	78.0	70.0	62.0	53.0	46.0	39.0	33.0	28.0	23.0	19.0	16.0	12.0	9.0	6.0	4.0	4.0	4.0	5.0	7.0	8.0	9.0	9.0	9.0	9.0	9.0	9.0	9.0	8.0	7.0	6.0	5.0	4.0	4.0	5.0	10.0	18.0	32.0	135.0	137.0	138.0	137.0	136.0	134.0	131.0	128.0	125.0	121.0	117.0	113.0	110.0	108.0	105.0	104.0	102.0	100.0	98.0	96.0	94.0	91.0	89.0	87.0	84.0	82.0	80.0	79.0	77.0	76.0	74.0	73.0	71.0	69.0	68.0	67.0	70.0	77.0	91.0	113.0	141.0	174.0	206.0	234.0	254.0	254.0	254.0	254.0	251.0	237.0	222.0	207.0	193.0	180.0	169.0	159.0	150.0	141.0	133.0	127.0	123.0	120.0	119.0	118.0	118.0	117.0	115.0	112.0	108.0	103.0	97.0	90.0	82.0	75.0	69.0	63.0	58.0	53.0	49.0	46.0	43.0	40.0	38.0	37.0	37.0	37.0	37.0	38.0	38.0	38.0	39.0	39.0	39.0	39.0	39.0	39.0	39.0	39.0	39.0	39.0	39.0	39.0	39.0	40.0	43.0	50.0	64.0	86.0	115.0	148.0	183.0	215.0	239.0	254.0	254.0	254.0	252.0	241.0	227.0	213.0	200.0	188.0	179.0	171.0	164.0	158.0	152.0	146.0	142.0	138.0	135.0	133.0	131.0	129.0	127.0	123.0	118.0	111.0	103.0	93.0	83.0	73.0	63.0	54.0	45.0	37.0	30.0	23.0	18.0	14.0	11.0	9.0	8.0	8.0	8.0	8.0	8.0	8.0	9.0	9.0	9.0	9.0	9.0	9.0	11.0	13.0	15.0	18.0	20.0	22.0	24.0	26.0	28.0	30.0	32.0	33.0	35.0	38.0	42.0	49.0	62.0	82.0	110.0	142.0	177.0	211.0	239.0	254.0	254.0	254.0	254.0	254.0	242.0	228.0	215.0	202.0	192.0	183.0	174.0	166.0	157.0	149.0	140.0	132.0	127.0	122.0	118.0	115.0	112.0	109.0	106.0	102.0	97.0	92.0	87.0	81.0	75.0	69.0	63.0	58.0	53.0	49.0	46.0	43.0	42.0	41.0	40.0	40.0	41.0	41.0	41.0	42.0	43.0	43.0	44.0	45.0	45.0	45.0	45.0	45.0	46.0	46.0	47.0	47.0	48.0	48.0	48.0	48.0	49.0	49.0	48.0	48.0	48.0	49.0	51.0	56.0	66.0	84.0	108.0	138.0	170.0	201.0	226.0	243.0	251.0	251.0	245.0	234.0	220.0	205.0	190.0	177.0	165.0	155.0	145.0	137.0	130.0	125.0	120.0	118.0	117.0	117.0	117.0	118.0	117.0	115.0	112.0	108.0	102.0	96.0	89.0	83.0	77.0	71.0	66.0	61.0	57.0	53.0	51.0	48.0	47.0	45.0	45.0	45.0	45.0	47.0	48.0	49.0	49.0	50.0	50.0	50.0	49.0	49.0	50.0	50.0	50.0	50.0	49.0	49.0	48.0	48.0	47.0	47.0	46.0	47.0	50.0	57.0	70.0	90.0	118.0	148.0	180.0	208.0	230.0	244.0	250.0	249.0	242.0	232.0	220.0	207.0	195.0	185.0	176.0	168.0	161.0	154.0	148.0	141.0	134.0	127.0	123.0	119.0	116.0	114.0	112.0	110.0	106.0	102.0	96.0	90.0	83.0	76.0	70.0	64.0	58.0	53.0	48.0	44.0	41.0	39.0	38.0	37.0	37.0	37.0	37.0	38.0	40.0	41.0	42.0	43.0	43.0	44.0	44.0	45.0	46.0	46.0	47.0	47.0	47.0	47.0	47.0	48.0	48.0	47.0	47.0	47.0	48.0	51.0	58.0	72.0	94.0	123.0	156.0	190.0	221.0	245.0	254.0	254.0	254.0	254.0	249.0	236.0	222.0	209.0	198.0	188.0	179.0	171.0	163.0	155.0	147.0	140.0	133.0	128.0	125.0	122.0	119.0	117.0	114.0	110.0	106.0	101.0	95.0	88.0	82.0	76.0	70.0	65.0	60.0	56.0	52.0	49.0	46.0	44.0	42.0	41.0	40.0	40.0	40.0	40.0	41.0	41.0	41.0	41.0	42.0	42.0	42.0	41.0	41.0	41.0	40.0	41.0	41.0	42.0	42.0	43.0	44.0	44.0	45.0	45.0	46.0	46.0	47.0	48.0	51.0	56.0	66.0	83.0	108.0	138.0	171.0	203.0	230.0	250.0	254.0	254.0	254.0	250.0	236.0	220.0	205.0	191.0	179.0	169.0	160.0	153.0	145.0	138.0	133.0	128.0	126.0	124.0	123.0	122.0	121.0	118.0	115.0	111.0	106.0	100.0	94.0	88.0	82.0	76.0	70.0	65.0	60.0	56.0	53.0	50.0	47.0	46.0	45.0	44.0	43.0	43.0	43.0	43.0	44.0	44.0	44.0	45.0	45.0	45.0	45.0	45.0	45.0	45.0	45.0	45.0	45.0	45.0	45.0	45.0	44.0	43.0	43.0	42.0	43.0	45.0	51.0	63.0	83.0	110.0	141.0	175.0	206.0	230.0	246.0	253.0	251.0	243.0	232.0	218.0	204.0	192.0	181.0	173.0	165.0	159.0	153.0	146.0	140.0	134.0	129.0	126.0	123.0	120.0	118.0	115.0	113.0	109.0	105.0	100.0	94.0	88.0	81.0	75.0	68.0	61.0	55.0	50.0	46.0	42.0	40.0	38.0	37.0	37.0	37.0	37.0	37.0	38.0	39.0	40.0	41.0	42.0	43.0	43.0	44.0	44.0	44.0	44.0	44.0	44.0	44.0	44.0	45.0	45.0	46.0	46.0	47.0	48.0	48.0	48.0	49.0	49.0	50.0	52.0	57.0	67.0	84.0	109.0	138.0	172.0	204.0	231.0	250.0	254.0	254.0	253.0	242.0	228.0	213.0	199.0	186.0	176.0	168.0	160.0	153.0	145.0	137.0	129.0	123.0	117.0	113.0	111.0	110.0	110.0	110.0	109.0	108.0	105.0	102.0	98.0	94.0	89.0	84.0	79.0	74.0	69.0	64.0	59.0	55.0	51.0	49.0	46.0	45.0	44.0	44.0	45.0	46.0	47.0	48.0	49.0	49.0	49.0	48.0	48.0	47.0	46.0	46.0	45.0	44.0	43.0	43.0	42.0	42.0	42.0	43.0	43.0	43.0	42.0	42.0	42.0	41.0	42.0	44.0	48.0	57.0	72.0	94.0	123.0	153.0	184.0	209.0	227.0	236.0	237.0	231.0	220.0	207.0	192.0	178.0	166.0	156.0	147.0	140.0	133.0	127.0	123.0	119.0	117.0	116.0	116.0	116.0	117.0	116.0	115.0	112.0	108.0	104.0	98.0	92.0	87.0	81.0	75.0	70.0	65.0	61.0	57.0	55.0	53.0	52.0	52.0	51.0	51.0	51.0	51.0	50.0	50.0	49.0	48.0	47.0	46.0	45.0	45.0	45.0	45.0	46.0	46.0	47.0	48.0	49.0	49.0	49.0	49.0	48.0	48.0	48.0	49.0	52.0	58.0	70.0	89.0	114.0	144.0	175.0	204.0	227.0	241.0	247.0	246.0	238.0	227.0	214.0	201.0	188.0	178.0	169.0	162.0	155.0	148.0	140.0	133.0	127.0	122.0	118.0	116.0	114.0	113.0	111.0	108.0	105.0	100.0	95.0	90.0	84.0	79.0	73.0	68.0	64.0	61.0	57.0	55.0	53.0	51.0	50.0	50.0	50.0	51.0	51.0	52.0	52.0	53.0	53.0	53.0	53.0	53.0	53.0	53.0	53.0	53.0	54.0	55.0	56.0	58.0	59.0	61.0	62.0	62.0	63.0	62.0	61.0	60.0	58.0	58.0	59.0	65.0	77.0	96.0	121.0	150.0	180.0	206.0	225.0	237.0	240.0	237.0	228.0	216.0	203.0	189.0	177.0	167.0	158.0	150.0	144.0	137.0	131.0	126.0	121.0	117.0	115.0	113.0	112.0	111.0	109.0	107.0	104.0	100.0	95.0	90.0	85.0	80.0	76.0	71.0	67.0	63.0	59.0	56.0	53.0	51.0	49.0	47.0	47.0	47.0	47.0	49.0	50.0	52.0	53.0	55.0	56.0	57.0	58.0	59.0	60.0	61.0	61.0	60.0	60.0	59.0	58.0	57.0	56.0	55.0	54.0	56.0	60.0	69.0	85.0	107.0	132.0	161.0	187.0	208.0	221.0	227.0	225.0	218.0	207.0	193.0	179.0	165.0	153.0	142.0	133.0	126.0	119.0	114.0	110.0	108.0	107.0	107.0	108.0	109.0	110.0	109.0	108.0	105.0	102.0	97.0	92.0	86.0	80.0	73.0	67.0	62.0	57.0	52.0	49.0	46.0	45.0	44.0	43.0	43.0	43.0	43.0	44.0	45.0	45.0	46.0	47.0	49.0	50.0	52.0	54.0	55.0	57.0	58.0	59.0	59.0	60.0	59.0	59.0	59.0	60.0	63.0	72.0	88.0	110.0	137.0	168.0	197.0	220.0	236.0	243.0	243.0	236.0	225.0	212.0	198.0	185.0	173.0	164.0	156.0	150.0	143.0	137.0	131.0	127.0	122.0	118.0	116.0	114.0	113.0	112.0	110.0	107.0	103.0	99.0	95.0	89.0	84.0	79.0	74.0	70.0	66.0	62.0	59.0	55.0	52.0	49.0	46.0	45.0	44.0	44.0	44.0	44.0	45.0	45.0	46.0	46.0	47.0	48.0	48.0	49.0	49.0	49.0	48.0	48.0	47.0	47.0	46.0	46.0	46.0	46.0	48.0	51.0	59.0	73.0	95.0	123.0	153.0	184.0	211.0	230.0	241.0	244.0	239.0	230.0	216.0	202.0	188.0	176.0	165.0	157.0	151.0	145.0	139.0	134.0	129.0	126.0	123.0	121.0	121.0	121.0	120.0	119.0	117.0	114.0	110.0	105.0	99.0	93.0	87.0	81.0	74.0	68.0	62.0	57.0	52.0	49.0	46.0	44.0	43.0	43.0	43.0	44.0	46.0	48.0	50.0	52.0	53.0	54.0	55.0	55.0	56.0	56.0	56.0	56.0	56.0	55.0	55.0	55.0	55.0	55.0	54.0	54.0	54.0	53.0	53.0	56.0	63.0	76.0	96.0	122.0	151.0	181.0	206.0	225.0	235.0	238.0	233.0	224.0	212.0	198.0	185.0	172.0	161.0	152.0	143.0	136.0	129.0	125.0	121.0	119.0	119.0	120.0	121.0	121.0	121.0	120.0	118.0	114.0	110.0	105.0	99.0	93.0	87.0	82.0	77.0	72.0	68.0	65.0	61.0	58.0	56.0	55.0	54.0	53.0	53.0	54.0	54.0	54.0	55.0	55.0	55.0	56.0	56.0	57.0	58.0	59.0	60.0	60.0	60.0	59.0	58.0	57.0	55.0	54.0	54.0	57.0	65.0	79.0	100.0	126.0	154.0	180.0	202.0	217.0	225.0	225.0	219.0	209.0	196.0	181.0	167.0	155.0	144.0	136.0	129.0	125.0	121.0	117.0	115.0	113.0	113.0	113.0	113.0	113.0	112.0	111.0	108.0	103.0	98.0	93.0	87.0	82.0	77.0	72.0	68.0	64.0	60.0	56.0	53.0	50.0	48.0	46.0	46.0	46.0	46.0	47.0	49.0	50.0	52.0	53.0	55.0	56.0	57.0	58.0	58.0	58.0	59.0	59.0	58.0	57.0	56.0	55.0	54.0	53.0	53.0	56.0	63.0	77.0	98.0	125.0	155.0	186.0	212.0	232.0	243.0	246.0	241.0	231.0	218.0	203.0	189.0	176.0	165.0	156.0	148.0	142.0	136.0	130.0	126.0	122.0	119.0	117.0	115.0	113.0	111.0	109.0	106.0	103.0	100.0	96.0	91.0	86.0	80.0	74.0	68.0	62.0	57.0	53.0	50.0	47.0	46.0	45.0	45.0	45.0	46.0	46.0	47.0	48.0	49.0	50.0	51.0	52.0	53.0	53.0	54.0	55.0	55.0	55.0	56.0	55.0	55.0	54.0	54.0	53.0	52.0	52.0	53.0	56.0	63.0	76.0	97.0	123.0	152.0	182.0	206.0	224.0	233.0	235.0	230.0	220.0	209.0	196.0	184.0	172.0	163.0	155.0	148.0	142.0	136.0	131.0	127.0	125.0	123.0	122.0	122.0	121.0	119.0	117.0	113.0	108.0	103.0	97.0	91.0	84.0	78.0	72.0	66.0	60.0	56.0	52.0	50.0	48.0	47.0	47.0	47.0	47.0	47.0	47.0	47.0	48.0	48.0	49.0	50.0	51.0	53.0	54.0	55.0	55.0	55.0	55.0	55.0	54.0	53.0	53.0	54.0	58.0	68.0	85.0	108.0	135.0	165.0	193.0	215.0	229.0	235.0	233.0	226.0	214.0	201.0	187.0	174.0	164.0	155.0	148.0	141.0	136.0	129.0	124.0	119.0	114.0	111.0	109.0	108.0	107.0	106.0	105.0	103.0	100.0	96.0	90.0	84.0	78.0	71.0	65.0	59.0	54.0	50.0	47.0	44.0	43.0	42.0	41.0	41.0	42.0	43.0	43.0	44.0	45.0	46.0	47.0	48.0	49.0	50.0	51.0	51.0	51.0	51.0	51.0	51.0	50.0	49.0	50.0	53.0	61.0	76.0	98.0	126.0	156.0	186.0	211.0	229.0	238.0	240.0	234.0	224.0	211.0	198.0	185.0	174.0	165.0	157.0	150.0	144.0	138.0	131.0	126.0	121.0	116.0	113.0	110.0	108.0	106.0	105.0	102.0	100.0	96.0	91.0	86.0	81.0	75.0	70.0	65.0	61.0	57.0	53.0	50.0	47.0	45.0	43.0	42.0	42.0	42.0	42.0	43.0	44.0	45.0	46.0	47.0	48.0	48.0	48.0	48.0	49.0	49.0	49.0	49.0	50.0	50.0	51.0	51.0	51.0	52.0	52.0	51.0	51.0	49.0	49.0	51.0	59.0	75.0	100.0	130.0	163.0	195.0	222.0	240.0	249.0	250.0	244.0	234.0	221.0	208.0	195.0	184.0	175.0	168.0	161.0	154.0	148.0	141.0	136.0	132.0	129.0	127.0	127.0	126.0	126.0	125.0	123.0	120.0	117.0	113.0	108.0	104.0	99.0	95.0	91.0	86.0	82.0	77.0	74.0	70.0	68.0	66.0	65.0	64.0	64.0	64.0	64.0	65.0	65.0	65.0	65.0	64.0	63.0	62.0	61.0	59.0	57.0	55.0	53.0	51.0	49.0	47.0	45.0	43.0	42.0	41.0	39.0	37.0	36.0	34.0	34.0	37.0	45.0	61.0	84.0	114.0	147.0	179.0	207.0	227.0	238.0	240.0	234.0	222.0	207.0	190.0	173.0	159.0	146.0	136.0	129.0	123.0	118.0	113.0	109.0	107.0	106.0	106.0	107.0	107.0	108.0	108.0	108.0	106.0	102.0	96.0	89.0	82.0	75.0	69.0	64.0	59.0	55.0	51.0	47.0	44.0	41.0	38.0	36.0	35.0	34.0	35.0	35.0	36.0	37.0	38.0	39.0	40.0	42.0	43.0	44.0	45.0	46.0	46.0	47.0	47.0	46.0	46.0	46.0	46.0	46.0	46.0	47.0	47.0	48.0	48.0	48.0	48.0	48.0	48.0	48.0	52.0	59.0	73.0	95.0	123.0	156.0	190.0	221.0	245.0	254.0	254.0	254.0	251.0	237.0	222.0	205.0	190.0	177.0	165.0	156.0	148.0	140.0	134.0	129.0	125.0	122.0	120.0	119.0	118.0	117.0	116.0	114.0	111.0	107.0	103.0	98.0	93.0	88.0	83.0	78.0	73.0	67.0	62.0	56.0	52.0	48.0	45.0	42.0	41.0	39.0	39.0	39.0	39.0	40.0	41.0	42.0	43.0	45.0	46.0	48.0	50.0	51.0	53.0	55.0	56.0	58.0	59.0	60.0	60.0	61.0	61.0	61.0	62.0	62.0	62.0	62.0	62.0	63.0	67.0	76.0	92.0	115.0	144.0	177.0	208.0	234.0	252.0	254.0	254.0	254.0	245.0	229.0	213.0	196.0	181.0	168.0	156.0	147.0	138.0	130.0	124.0	119.0	117.0	116.0	116.0	118.0	119.0	120.0	120.0	118.0	115.0	111.0	106.0	100.0	94.0	87.0	81.0	75.0	70.0	65.0	61.0	57.0	54.0	51.0	49.0	48.0	48.0	49.0	50.0	51.0	52.0	53.0	54.0	55.0	55.0	54.0	54.0	53.0	53.0	53.0	53.0	54.0	54.0	55.0	55.0	56.0	56.0	57.0	57.0	58.0	62.0	70.0	86.0	109.0	137.0	170.0	203.0	231.0	251.0	254.0	254.0	254.0	250.0	236.0	219.0	203.0	189.0	177.0	167.0	158.0	151.0	144.0	137.0	132.0	128.0	127.0	127.0	127.0	129.0	130.0	130.0	128.0	126.0	120.0	114.0	107.0	99.0	92.0	85.0	78.0	72.0	67.0	62.0	57.0	54.0	51.0	48.0	47.0	45.0	44.0	43.0	42.0	41.0	39.0	38.0	37.0	36.0	35.0	35.0	35.0	35.0	36.0	37.0	38.0	39.0	40.0	41.0	42.0	42.0	43.0	43.0	44.0	46.0	50.0	59.0	74.0	97.0	125.0	156.0	187.0	213.0	232.0	243.0	245.0	240.0	230.0	217.0	202.0	187.0	174.0	163.0	155.0	148.0	141.0	135.0	129.0	124.0	120.0	117.0	115.0	113.0	112.0	110.0	107.0	103.0	99.0	95.0	90.0	85.0	80.0	75.0	70.0	65.0	61.0	57.0	54.0	50.0	48.0	46.0	44.0	43.0	43.0	43.0	44.0	44.0	45.0	47.0	48.0	49.0	49.0	50.0	50.0	49.0	49.0	48.0	48.0	47.0	48.0	48.0	48.0	49.0	49.0	50.0	50.0	49.0	49.0	48.0	49.0	51.0	58.0	71.0	92.0	120.0	151.0	183.0	211.0	232.0	244.0	247.0	243.0	233.0	220.0	206.0	191.0	177.0	165.0	155.0	146.0	138.0	131.0	126.0	121.0	118.0	117.0	117.0	118.0	118.0	118.0	117.0	114.0	110.0	105.0	99.0	92.0	85.0	78.0	71.0	65.0	60.0	56.0	53.0	50.0	47.0	45.0	43.0	42.0	42.0	43.0	44.0	46.0	47.0	48.0	49.0	49.0	49.0	49.0	48.0	45.0	42.0	39.0	37.0	36.0	36.0	36.0	37.0	38.0	39.0	40.0	41.0	43.0	44.0	47.0	51.0	60.0	76.0	99.0	127.0	161.0	195.0	226.0	249.0	254.0	254.0	254.0	254.0	250.0	237.0	224.0	212.0	201.0	193.0	186.0	179.0	173.0	166.0	160.0	154.0	149.0	144.0	141.0	138.0	136.0	133.0	129.0	126.0	122.0	116.0	111.0	105.0	98.0	93.0	87.0	82.0	77.0	72.0	68.0	65.0	62.0	60.0	57.0	56.0	54.0	53.0	53.0	53.0	53.0	53.0	53.0	53.0	53.0	52.0	52.0	51.0	50.0	48.0	47.0	45.0	44.0	43.0	43.0	42.0	42.0	42.0	43.0	43.0	44.0	44.0	44.0	44.0	44.0	43.0	43.0	43.0	44.0	48.0	56.0	70.0	93.0	123.0	156.0	191.0	222.0	246.0	254.0	254.0	254.0	254.0	245.0	230.0	216.0	203.0	191.0	182.0	174.0	166.0	158.0	150.0	141.0	133.0	127.0	122.0	118.0	114.0	111.0	107.0	102.0	96.0	88.0	79.0	71.0	62.0	55.0	48.0	42.0	37.0	33.0	29.0	26.0	24.0	22.0	20.0	20.0	20.0	20.0	21.0	22.0	24.0	26.0	27.0	28.0	28.0	28.0	28.0	27.0	26.0	25.0	24.0	24.0	25.0	27.0	28.0	30.0	32.0	34.0	35.0	37.0	39.0	41.0	43.0	45.0	47.0	49.0	51.0	53.0	54.0	56.0	57.0	60.0	65.0	75.0	92.0	115.0	144.0	176.0	208.0	235.0	254.0	254.0	254.0	254.0	254.0	243.0	228.0	214.0	201.0	190.0	181.0	173.0	167.0	161.0	155.0	151.0	148.0	147.0	146.0	147.0	147.0	146.0	144.0	141.0	137.0	131.0	126.0	118.0	111.0	103.0	96.0	90.0	83.0	78.0	73.0	68.0	65.0	61.0	59.0	57.0	56.0	55.0	55.0	55.0	55.0	56.0	56.0	56.0	56.0	56.0	56.0	55.0	54.0	54.0	53.0	52.0	51.0	51.0	50.0	49.0	48.0	46.0	44.0	42.0	40.0	39.0	39.0	38.0	38.0	39.0	44.0	54.0	72.0	98.0	129.0	164.0	199.0	228.0	249.0	254.0	254.0	254.0	247.0	233.0	217.0	201.0	187.0	175.0	165.0	156.0	148.0	141.0	134.0	127.0	122.0	117.0	114.0	111.0	109.0	106.0	104.0	100.0	96.0	92.0	86.0	81.0	74.0	68.0	62.0	57.0	51.0	46.0	41.0	36.0	33.0	29.0	27.0	25.0	24.0	24.0	23.0	23.0	23.0	24.0	24.0	25.0	25.0	25.0	25.0	25.0	25.0	24.0	23.0	21.0	20.0	19.0	19.0	19.0	21.0	22.0	24.0	26.0	28.0	29.0	31.0	33.0	34.0	36.0	37.0	38.0	40.0	43.0	50.0	63.0	84.0	111.0	144.0	179.0	211.0	238.0	254.0	254.0	254.0	254.0	249.0	235.0	220.0	206.0	193.0	183.0	175.0	168.0	162.0	156.0	150.0	145.0	140.0	137.0	134.0	132.0	130.0	128.0	127.0	124.0	121.0	117.0	112.0	107.0	101.0	94.0	88.0	81.0	75.0	69.0	64.0	59.0	55.0	50.0	46.0	43.0	40.0	38.0	37.0	37.0	38.0	39.0	40.0	41.0	42.0	43.0	44.0	44.0	43.0	43.0	44.0	44.0	45.0	46.0	48.0	49.0	51.0	53.0	55.0	57.0	59.0	61.0	64.0	66.0	68.0	70.0	72.0	73.0	73.0	73.0	73.0	75.0	81.0	93.0	112.0	137.0	166.0	195.0	221.0	240.0	251.0	254.0	252.0	244.0	232.0	219.0	205.0	192.0	180.0	169.0	160.0	152.0	145.0	140.0	137.0	135.0	135.0	136.0	137.0	138.0	138.0	136.0	133.0	129.0	124.0	118.0	111.0	103.0	96.0	88.0	80.0	73.0	66.0	59.0	53.0	47.0	42.0	38.0	35.0	33.0	32.0	32.0	32.0	33.0	33.0	34.0	34.0	35.0	35.0	36.0	36.0	36.0	37.0	37.0	37.0	38.0	38.0	39.0	41.0	44.0	50.0	56.0	63.0	68.0	70.0	71.0	72.0	76.0	86.0	104.0	128.0	160.0	193.0	226.0	253.0	254.0	254.0	254.0	254.0	254.0	252.0	236.0	219.0	204.0	190.0	179.0	169.0	161.0	154.0	146.0	139.0	132.0	126.0	120.0	115.0	111.0	108.0	104.0	101.0	97.0	92.0	87.0	81.0	75.0	68.0	61.0	55.0	49.0	45.0	41.0	38.0	36.0	34.0	33.0	32.0	31.0	30.0	30.0	31.0	32.0	33.0	34.0	34.0	33.0	32.0	32.0	32.0	32.0	33.0	34.0	35.0	35.0	35.0	36.0	36.0	38.0	39.0	40.0	41.0	42.0	43.0	44.0	44.0	44.0	44.0	43.0	43.0	45.0	52.0	64.0	84.0	112.0	143.0	177.0	208.0	233.0	249.0	254.0	254.0	246.0	235.0	221.0	207.0	194.0	182.0	172.0	163.0	155.0	148.0	141.0	134.0	129.0	125.0	121.0	119.0	117.0	115.0	113.0	110.0	107.0	104.0	100.0	96.0	91.0	86.0	82.0	78.0	73.0	69.0	64.0	60.0	56.0	54.0	52.0	50.0	50.0	49.0	50.0	50.0	51.0	53.0	54.0	56.0	57.0	58.0	59.0	59.0	61.0	62.0	63.0	63.0	64.0	64.0	64.0	64.0	65.0	65.0	66.0	67.0	68.0	68.0	69.0	69.0	68.0	68.0	68.0	69.0	71.0	79.0	92.0	113.0	140.0	172.0	204.0	233.0	254.0	254.0	254.0	254.0	254.0	243.0	226.0	208.0	192.0	177.0	164.0	152.0	142.0	133.0	127.0	121.0	118.0	116.0	116.0	117.0	118.0	118.0	117.0	116.0	113.0	109.0	104.0	98.0	91.0	84.0	76.0	69.0	62.0	56.0	51.0	46.0	42.0	39.0	37.0	35.0	33.0	33.0	33.0	33.0	34.0	35.0	36.0	37.0	38.0	38.0	39.0	39.0	40.0	41.0	42.0	43.0	44.0	45.0	46.0	48.0	48.0	49.0	48.0	47.0	45.0	43.0	42.0	41.0	42.0	43.0	46.0	51.0	61.0	76.0	98.0	127.0	160.0	195.0	229.0	254.0	254.0	254.0	254.0	254.0	254.0	254.0	249.0	231.0	213.0	197.0	183.0	172.0	163.0	156.0	149.0	142.0	137.0	133.0	130.0	128.0	127.0	127.0	126.0	124.0	121.0	116.0	112.0	106.0	100.0	94.0	88.0	82.0	76.0	70.0	64.0	59.0	55.0	51.0	48.0	46.0	45.0	45.0	46.0	46.0	47.0	48.0	49.0	50.0	50.0	51.0	51.0	51.0	51.0	50.0	50.0	49.0	48.0	48.0	47.0	47.0	47.0	46.0	46.0	46.0	46.0	46.0	47.0	48.0	49.0	50.0	51.0	52.0	53.0	55.0	59.0	67.0	82.0	105.0	134.0	169.0	206.0	239.0	254.0	254.0	254.0	254.0	254.0	254.0	245.0	227.0	210.0	195.0	183.0	173.0	164.0	156.0	149.0	143.0	138.0	134.0	131.0	129.0	127.0	125.0	123.0	119.0	115.0	111.0	105.0	100.0	94.0	88.0	81.0	75.0	68.0	63.0	57.0	53.0	48.0	45.0	42.0	40.0	38.0	38.0	38.0	39.0	40.0	42.0	43.0	45.0	46.0	47.0	47.0	47.0	47.0	47.0	46.0	46.0	45.0	45.0	46.0	46.0	47.0	47.0	48.0	49.0	49.0	49.0	49.0	48.0	48.0	48.0	48.0	51.0	57.0	70.0	90.0	117.0	149.0	184.0	216.0	241.0	254.0	254.0	254.0	254.0	242.0	225.0	207.0	190.0	175.0	162.0	150.0	140.0	131.0	125.0	118.0	114.0	111.0	110.0	111.0	112.0	114.0	114.0	114.0	111.0	108.0	102.0	96.0	89.0	82.0	75.0	68.0	62.0	57.0	53.0	49.0	46.0	44.0	42.0	42.0	41.0	41.0	57.0	64.0	76.0	97.0	125.0	159.0	198.0	235.0	254.0	254.0	254.0	254.0	254.0	254.0	254.0	250.0	231.0	214.0	200.0	187.0	177.0	168.0	159.0	151.0	144.0	137.0	132.0	128.0	126.0	123.0	120.0	118.0	115.0	111.0	106.0	100.0	94.0	86.0	79.0	72.0	65.0	59.0	54.0	49.0	46.0	42.0	40.0	38.0	36.0	35.0	35.0	35.0	35.0	36.0	37.0	37.0	38.0	39.0	39.0	39.0	40.0	40.0	40.0	40.0	40.0	40.0	40.0	40.0	40.0	40.0	41.0	42.0	43.0	43.0	44.0	45.0	46.0	47.0	48.0	49.0	50.0	51.0	55.0	62.0	76.0	97.0	127.0	160.0	196.0	229.0	254.0	254.0	254.0	254.0	254.0	254.0	237.0	218.0	199.0	183.0	168.0	157.0	148.0	140.0	134.0	130.0	127.0	125.0	125.0	125.0	126.0	126.0	125.0	123.0	120.0	115.0	110.0	103.0	97.0	89.0	82.0	75.0	69.0	63.0	59.0	55.0	52.0	50.0	49.0	48.0	47.0	47.0	47.0	48.0	48.0	49.0	49.0	50.0	50.0	50.0	50.0	50.0	50.0	50.0	50.0	50.0	51.0	51.0	51.0	52.0	52.0	52.0	52.0	51.0	51.0	50.0	50.0	50.0	50.0	53.0	59.0	71.0	91.0	118.0	150.0	185.0	218.0	246.0	254.0	254.0	254.0	254.0	252.0	235.0	217.0	200.0	184.0	171.0	160.0	151.0	143.0	136.0	129.0	124.0	120.0	118.0	116.0	116.0	116.0	116.0	115.0	113.0	110.0	105.0	101.0	95.0	90.0	85.0	80.0	77.0	73.0	70.0	68.0	65.0	61.0	58.0	55.0	52.0	49.0	46.0	43.0	41.0	39.0	37.0	36.0	36.0	36.0	35.0	35.0	36.0	36.0	36.0	36.0	37.0	37.0	38.0	38.0	38.0	39.0	40.0	41.0	42.0	44.0	45.0	46.0	47.0	48.0	48.0	49.0	51.0	56.0	67.0	86.0	114.0	147.0	184.0	221.0	251.0	254.0	254.0	254.0	254.0	254.0	252.0	235.0	218.0	202.0	190.0	179.0	171.0	164.0	157.0	149.0	142.0	136.0	130.0	127.0	124.0	122.0	120.0	118.0	116.0	112.0	107.0	102.0	95.0	88.0	82.0	75.0	68.0	62.0	57.0	53.0	50.0	47.0	46.0	44.0	43.0	43.0	43.0	44.0	44.0	45.0	46.0	47.0	49.0	50.0	51.0	52.0	52.0	52.0	51.0	50.0	49.0	48.0	47.0	47.0	46.0	47.0	47.0	47.0	48.0	48.0	49.0	49.0	50.0	50.0	51.0	51.0	53.0	56.0	64.0	78.0	100.0	128.0	164.0	200.0	233.0	254.0	254.0	254.0	254.0	254.0	254.0	247.0	229.0	211.0	196.0	184.0	174.0	165.0	157.0	149.0	142.0	135.0	130.0	127.0	125.0	123.0	122.0	119.0	116.0	112.0	106.0	100.0	93.0	86.0	79.0	72.0	66.0	61.0	57.0	54.0	51.0	48.0	45.0	43.0	40.0	38.0	36.0	35.0	35.0	35.0	36.0	36.0	37.0	37.0	37.0	36.0	36.0	35.0	34.0	33.0	32.0	32.0	31.0	30.0	30.0	29.0	28.0	27.0	27.0	26.0	26.0	26.0	27.0	28.0	29.0	33.0	40.0	53.0	73.0	99.0	130.0	164.0	195.0	220.0	238.0	246.0	247.0	241.0	231.0	219.0	206.0	193.0	182.0	173.0	166.0	160.0	154.0	147.0	140.0	132.0	126.0	120.0	115.0	112.0	109.0	107.0	104.0	101.0	97.0	93.0	87.0	81.0	74.0	67.0	60.0	53.0	47.0	41.0	37.0	33.0	29.0	27.0	26.0	25.0	25.0	26.0	27.0	29.0	31.0	33.0	35.0	36.0	38.0	39.0	41.0	42.0	43.0	44.0	44.0	45.0	45.0	45.0	45.0	45.0	45.0	45.0	45.0	45.0	45.0	45.0	45.0	45.0	45.0	46.0	48.0	53.0	63.0	80.0	104.0	132.0	165.0	197.0	223.0	241.0	251.0	252.0	247.0	236.0	222.0	207.0	192.0	179.0	168.0	158.0	151.0	144.0	138.0	133.0	128.0	126.0	124.0	123.0	123.0	123.0	122.0	120.0	118.0	114.0	109.0	104.0	97.0	91.0	85.0	79.0	73.0	67.0	62.0	58.0	54.0	51.0	49.0	48.0	48.0	48.0	49.0	50.0	51.0	53.0	53.0	54.0	54.0	55.0	55.0	56.0	57.0	57.0	57.0	57.0	57.0	57.0	56.0	56.0	56.0	55.0	55.0	55.0	56.0	59.0	66.0	78.0	97.0	122.0	152.0	183.0	211.0	233.0	248.0	254.0	253.0	246.0	236.0	222.0	208.0	194.0	182.0	171.0	162.0	154.0	147.0	139.0	132.0	126.0	120.0	116.0	114.0	113.0	113.0	113.0	113.0	113.0	111.0	107.0	103.0	98.0	92.0	85.0	79.0	73.0	67.0	61.0	56.0	50.0	45.0	41.0	37.0	35.0	33.0	32.0	31.0	32.0	32.0	34.0	35.0	36.0	37.0	37.0	37.0	37.0	37.0	37.0	38.0	39.0	40.0	41.0	43.0	44.0	45.0	45.0	44.0	42.0	41.0	39.0	40.0	43.0	50.0	65.0	87.0	115.0	146.0	178.0	206.0	227.0	240.0	244.0	242.0	234.0	222.0	209.0	196.0	184.0	173.0	165.0	158.0	152.0	146.0	141.0	135.0	130.0	127.0	124.0	123.0	121.0	120.0	118.0	116.0	112.0	108.0	104.0	99.0	94.0	89.0	83.0	78.0	73.0	68.0	64.0	60.0	57.0	54.0	51.0	49.0	48.0	47.0	47.0	47.0	48.0	48.0	49.0	50.0	50.0	50.0	50.0	49.0	49.0	49.0	49.0	48.0	48.0	48.0	48.0	48.0	47.0	47.0	47.0	46.0	46.0	45.0	46.0	47.0	51.0	60.0	75.0	96.0	123.0	152.0	180.0	203.0	219.0	228.0	230.0	226.0	216.0	204.0	191.0	178.0	166.0	156.0	147.0	140.0	134.0	128.0	124.0	120.0	118.0	117.0	117.0	118.0	118.0	118.0	117.0	115.0	112.0	108.0	103.0	98.0	92.0	85.0	79.0	72.0	67.0	62.0	58.0	54.0	51.0	49.0	47.0	45.0	44.0	44.0	44.0	45.0	46.0	47.0	48.0	49.0	50.0	51.0	51.0	51.0	51.0	51.0	51.0	51.0	51.0	52.0	52.0	53.0	53.0	53.0	54.0	54.0	53.0	53.0	53.0	53.0	55.0	61.0	72.0	90.0	115.0	144.0	175.0	203.0	226.0	242.0	249.0	250.0	244.0	234.0	221.0	208.0	195.0	184.0	175.0	168.0	163.0	157.0	152.0	146.0	141.0	136.0	132.0	129.0	127.0	125.0	123.0	121.0	119.0	116.0	112.0	107.0	102.0	96.0	90.0	85.0	79.0	74.0	70.0	66.0	62.0	59.0	56.0	54.0	53.0	52.0	52.0	52.0	52.0	53.0	53.0	53.0	53.0	54.0	54.0	54.0	54.0	54.0	54.0	54.0	54.0	54.0	54.0	53.0	53.0	52.0	51.0	49.0	48.0	46.0	45.0	45.0	44.0	44.0	45.0	48.0	55.0	68.0	90.0	118.0	148.0	180.0	207.0	226.0	238.0	241.0	238.0	229.0	217.0	203.0	189.0	177.0	166.0	157.0	149.0	143.0	137.0	131.0	127.0	124.0	121.0	120.0	120.0	120.0	120.0	119.0	117.0	115.0	110.0	105.0	100.0	93.0	87.0	82.0	76.0	71.0	66.0	62.0	58.0	55.0	52.0	49.0	48.0	46.0	45.0	45.0	44.0	44.0	45.0	45.0	46.0	47.0	47.0	48.0	48.0	48.0	48.0	48.0	48.0	49.0	49.0	50.0	51.0	51.0	52.0	53.0	53.0	54.0	54.0	55.0	56.0	59.0	65.0	78.0	97.0	123.0	152.0	183.0	211.0	233.0	247.0	253.0	252.0	245.0	233.0	219.0	205.0	193.0	182.0	173.0	166.0	160.0	155.0	150.0	144.0	139.0	134.0	131.0	