104.0	105.0	105.0	103.0	100.0	95.0	90.0	87.0	85.0	84.0	84.0	84.0	85.0	86.0	88.0	89.0	90.0	91.0	91.0	92.0	92.0	93.0	95.0	97.0	100.0	105.0	110.0	116.0	123.0	128.0	132.0	135.0	136.0	136.0	135.0	133.0	130.0	126.0	122.0	117.0	111.0	106.0	103.0	101.0	100.0	101.0	102.0	103.0	104.0	106.0	108.0	112.0	115.0	118.0	121.0	123.0	126.0	130.0	140.0	158.0	183.0	208.0	227.0	231.0	221.0	199.0	173.0	149.0	131.0	120.0	111.0	105.0	101.0	100.0	101.0	104.0	109.0	113.0	115.0	114.0	109.0	100.0	90.0	79.0	71.0	66.0	64.0	66.0	68.0	72.0	75.0	80.0	85.0	92.0	100.0	108.0	114.0	119.0	122.0	122.0	122.0	123.0	124.0	125.0	126.0	125.0	123.0	119.0	114.0	110.0	108.0	107.0	108.0	112.0	120.0	130.0	140.0	148.0	154.0	155.0	156.0	155.0	155.0	152.0	149.0	144.0	140.0	137.0	135.0	134.0	131.0	127.0	123.0	117.0	112.0	108.0	109.0	119.0	139.0	169.0	202.0	230.0	246.0	246.0	228.0	193.0	146.0	91.0	37.0	0.0	0.0	0.0	0.0	23.0	60.0	90.0	108.0	113.0	107.0	98.0	91.0	88.0	88.0	89.0	92.0	95.0	100.0	104.0	109.0	111.0	111.0	108.0	103.0	96.0	89.0	82.0	76.0	71.0	66.0	62.0	59.0	56.0	53.0	52.0	51.0	50.0	51.0	51.0	52.0	53.0	54.0	56.0	59.0	63.0	68.0	72.0	76.0	79.0	81.0	85.0	89.0	92.0	94.0	95.0	97.0	102.0	110.0	121.0	131.0	140.0	148.0	152.0	155.0	157.0	156.0	153.0	148.0	142.0	136.0	130.0	126.0	121.0	117.0	112.0	108.0	104.0	100.0	94.0	88.0	81.0	76.0	73.0	72.0	73.0	75.0	76.0	75.0	73.0	70.0	64.0	54.0	41.0	27.0	15.0	7.0	4.0	5.0	9.0	11.0	13.0	15.0	17.0	18.0	18.0	17.0	16.0	16.0	17.0	21.0	29.0	38.0	47.0	55.0	60.0	64.0	65.0	65.0	65.0	63.0	60.0	56.0	52.0	46.0	37.0	25.0	11.0	0.0	0.0	0.0	0.0	0.0	0.0	0.0	2.0	8.0	14.0	20.0	25.0	30.0	34.0	38.0	42.0	47.0	52.0	57.0	59.0	59.0	57.0	56.0	56.0	58.0	59.0	56.0	47.0	35.0	26.0	25.0	32.0	46.0	64.0	81.0	95.0	109.0	123.0	138.0	155.0	172.0	187.0	199.0	207.0	214.0	221.0	228.0	236.0	244.0	252.0	254.0	254.0	254.0	254.0	254.0	243.0	231.0	219.0	207.0	195.0	184.0	173.0	163.0	153.0	145.0	139.0	135.0	135.0	136.0	138.0	139.0	138.0	135.0	131.0	127.0	123.0	118.0	114.0	109.0	104.0	100.0	97.0	95.0	95.0	97.0	98.0	95.0	90.0	82.0	74.0	67.0	63.0	61.0	59.0	57.0	55.0	53.0	54.0	55.0	55.0	54.0	52.0	52.0	53.0	55.0	59.0	63.0	66.0	69.0	71.0	72.0	72.0	73.0	73.0	73.0	74.0	75.0	77.0	80.0	85.0	92.0	98.0	104.0	107.0	108.0	107.0	107.0	109.0	114.0	121.0	127.0	133.0	135.0	133.0	129.0	124.0	119.0	114.0	111.0	108.0	107.0	105.0	105.0	105.0	105.0	106.0	108.0	109.0	110.0	110.0	110.0	109.0	107.0	106.0	106.0	106.0	107.0	108.0	110.0	112.0	115.0	116.0	117.0	118.0	117.0	116.0	114.0	112.0	109.0	107.0	105.0	106.0	108.0	113.0	118.0	122.0	125.0	125.0	123.0	119.0	115.0	110.0	107.0	103.0	100.0	98.0	95.0	93.0	91.0	90.0	89.0	88.0	86.0	84.0	81.0	77.0	73.0	70.0	68.0	67.0	65.0	64.0	61.0	59.0	57.0	55.0	55.0	56.0	58.0	60.0	62.0	63.0	64.0	66.0	71.0	79.0	89.0	100.0	111.0	120.0	126.0	127.0	127.0	124.0	120.0	114.0	109.0	106.0	103.0	101.0	100.0	99.0	99.0	99.0	99.0	100.0	100.0	101.0	101.0	101.0	102.0	102.0	103.0	105.0	108.0	112.0	115.0	118.0	120.0	121.0	122.0	121.0	119.0	115.0	110.0	104.0	99.0	93.0	89.0	87.0	88.0	91.0	96.0	103.0	110.0	115.0	119.0	120.0	120.0	118.0	116.0	113.0	110.0	107.0	105.0	102.0	99.0	97.0	95.0	93.0	92.0	91.0	90.0	90.0	91.0	92.0	94.0	96.0	97.0	98.0	98.0	99.0	99.0	99.0	99.0	99.0	99.0	100.0	101.0	102.0	104.0	106.0	108.0	111.0	113.0	117.0	120.0	124.0	127.0	131.0	133.0	134.0	133.0	131.0	129.0	127.0	124.0	122.0	119.0	117.0	115.0	113.0	110.0	109.0	108.0	108.0	109.0	110.0	112.0	114.0	115.0	116.0	116.0	116.0	115.0	114.0	112.0	109.0	105.0	100.0	95.0	90.0	87.0	85.0	83.0	83.0	83.0	83.0	83.0	84.0	87.0	91.0	96.0	102.0	107.0	110.0	112.0	111.0	109.0	105.0	102.0	98.0	95.0	91.0	88.0	85.0	82.0	80.0	79.0	79.0	80.0	83.0	85.0	87.0	89.0	90.0	90.0	90.0	91.0	91.0	92.0	92.0	93.0	93.0	94.0	95.0	96.0	97.0	99.0	100.0	101.0	101.0	102.0	103.0	106.0	109.0	113.0	117.0	120.0	122.0	121.0	120.0	117.0	114.0	112.0	109.0	107.0	105.0	103.0	102.0	102.0	102.0	103.0	105.0	107.0	109.0	111.0	112.0	112.0	111.0	109.0	106.0	101.0	97.0	93.0	90.0	88.0	87.0	87.0	87.0	88.0	88.0	89.0	89.0	90.0	92.0	95.0	100.0	105.0	111.0	116.0	119.0	120.0	120.0	117.0	114.0	110.0	106.0	102.0	100.0	98.0	97.0	97.0	97.0	96.0	96.0	95.0	95.0	95.0	95.0	94.0	94.0	93.0	92.0	92.0	92.0	92.0	93.0	94.0	95.0	97.0	98.0	99.0	100.0	100.0	99.0	98.0	97.0	97.0	97.0	98.0	100.0	105.0	110.0	116.0	121.0	125.0	127.0	126.0	124.0	121.0	117.0	114.0	111.0	109.0	108.0	107.0	107.0	106.0	105.0	105.0	104.0	104.0	104.0	103.0	101.0	98.0	95.0	92.0	90.0	88.0	88.0	88.0	87.0	86.0	85.0	84.0	83.0	82.0	82.0	82.0	82.0	82.0	81.0	81.0	80.0	78.0	76.0	74.0	73.0	74.0	77.0	83.0	90.0	96.0	100.0	102.0	102.0	101.0	99.0	98.0	97.0	97.0	97.0	97.0	98.0	98.0	98.0	99.0	99.0	100.0	102.0	104.0	107.0	109.0	111.0	113.0	113.0	113.0	112.0	110.0	108.0	106.0	103.0	101.0	99.0	98.0	98.0	98.0	98.0	98.0	99.0	99.0	100.0	101.0	103.0	106.0	111.0	117.0	123.0	127.0	131.0	133.0	133.0	131.0	128.0	125.0	121.0	116.0	110.0	105.0	99.0	95.0	92.0	90.0	89.0	90.0	91.0	93.0	95.0	97.0	99.0	99.0	99.0	98.0	96.0	94.0	93.0	91.0	89.0	86.0	84.0	81.0	79.0	76.0	74.0	71.0	68.0	65.0	63.0	63.0	66.0	70.0	76.0	83.0	89.0	94.0	98.0	100.0	102.0	102.0	102.0	102.0	102.0	102.0	103.0	103.0	103.0	103.0	103.0	102.0	102.0	103.0	104.0	105.0	106.0	108.0	108.0	108.0	107.0	106.0	105.0	104.0	103.0	102.0	101.0	101.0	100.0	99.0	99.0	100.0	100.0	101.0	102.0	104.0	107.0	111.0	115.0	119.0	122.0	123.0	123.0	121.0	118.0	114.0	111.0	108.0	106.0	104.0	102.0	101.0	100.0	98.0	97.0	96.0	95.0	95.0	95.0	95.0	96.0	96.0	96.0	96.0	95.0	94.0	92.0	90.0	88.0	86.0	85.0	84.0	85.0	86.0	88.0	90.0	92.0	94.0	96.0	98.0	100.0	102.0	105.0	108.0	111.0	114.0	116.0	118.0	118.0	118.0	118.0	117.0	115.0	113.0	111.0	109.0	107.0	106.0	105.0	104.0	104.0	104.0	105.0	105.0	106.0	106.0	106.0	106.0	105.0	104.0	103.0	103.0	103.0	103.0	104.0	104.0	104.0	104.0	105.0	106.0	108.0	111.0	115.0	118.0	120.0	122.0	122.0	121.0	119.0	117.0	114.0	111.0	108.0	105.0	102.0	99.0	96.0	94.0	92.0	90.0	89.0	88.0	88.0	88.0	89.0	89.0	89.0	89.0	89.0	88.0	87.0	87.0	86.0	86.0	85.0	84.0	84.0	83.0	82.0	81.0	80.0	80.0	79.0	80.0	82.0	85.0	90.0	96.0	103.0	110.0	115.0	119.0	120.0	120.0	118.0	116.0	113.0	110.0	107.0	104.0	102.0	100.0	99.0	98.0	97.0	97.0	97.0	98.0	99.0	100.0	101.0	101.0	101.0	100.0	100.0	99.0	99.0	99.0	99.0	100.0	101.0	102.0	104.0	105.0	106.0	106.0	105.0	104.0	101.0	98.0	96.0	96.0	99.0	104.0	110.0	117.0	123.0	126.0	127.0	126.0	123.0	120.0	116.0	113.0	110.0	107.0	104.0	101.0	99.0	97.0	95.0	94.0	94.0	95.0	95.0	97.0	98.0	99.0	100.0	99.0	99.0	98.0	96.0	95.0	94.0	93.0	92.0	91.0	91.0	92.0	93.0	94.0	96.0	98.0	100.0	101.0	102.0	103.0	104.0	106.0	109.0	112.0	114.0	116.0	116.0	115.0	114.0	112.0	110.0	108.0	106.0	105.0	103.0	101.0	100.0	98.0	97.0	96.0	96.0	97.0	98.0	99.0	100.0	102.0	104.0	105.0	107.0	108.0	108.0	106.0	105.0	103.0	101.0	100.0	99.0	98.0	97.0	96.0	95.0	93.0	91.0	90.0	90.0	90.0	91.0	93.0	96.0	101.0	106.0	111.0	116.0	119.0	120.0	119.0	116.0	112.0	108.0	105.0	102.0	100.0	99.0	98.0	97.0	97.0	96.0	96.0	96.0	96.0	95.0	94.0	93.0	93.0	93.0	94.0	97.0	100.0	103.0	105.0	107.0	107.0	107.0	107.0	106.0	105.0	105.0	105.0	105.0	105.0	104.0	104.0	105.0	106.0	109.0	112.0	116.0	119.0	120.0	119.0	116.0	114.0	111.0	108.0	105.0	103.0	101.0	99.0	96.0	94.0	92.0	90.0	87.0	85.0	83.0	81.0	81.0	81.0	82.0	82.0	82.0	81.0	81.0	80.0	80.0	80.0	80.0	80.0	81.0	81.0	80.0	79.0	79.0	78.0	79.0	81.0	84.0	88.0	93.0	99.0	104.0	109.0	112.0	114.0	113.0	110.0	105.0	99.0	92.0	86.0	80.0	74.0	70.0	67.0	66.0	66.0	67.0	68.0	69.0	71.0	72.0	74.0	76.0	77.0	80.0	82.0	85.0	88.0	90.0	93.0	95.0	96.0	97.0	97.0	97.0	97.0	97.0	97.0	99.0	102.0	105.0	110.0	113.0	116.0	117.0	117.0	115.0	114.0	112.0	110.0	109.0	107.0	105.0	103.0	102.0	101.0	100.0	100.0	100.0	100.0	100.0	100.0	100.0	101.0	103.0	104.0	106.0	107.0	108.0	108.0	108.0	107.0	106.0	105.0	103.0	102.0	100.0	100.0	101.0	103.0	108.0	113.0	119.0	124.0	127.0	127.0	126.0	123.0	120.0	117.0	114.0	111.0	109.0	109.0	109.0	110.0	111.0	112.0	113.0	113.0	113.0	113.0	114.0	115.0	116.0	117.0	117.0	117.0	116.0	115.0	113.0	111.0	108.0	105.0	102.0	99.0	96.0	93.0	92.0	92.0	94.0	98.0	104.0	109.0	114.0	117.0	119.0	120.0	121.0	121.0	121.0	119.0	118.0	116.0	114.0	113.0	112.0	112.0	112.0	112.0	113.0	114.0	115.0	115.0	116.0	116.0	116.0	116.0	115.0	113.0	111.0	108.0	106.0	103.0	100.0	97.0	95.0	93.0	91.0	90.0	90.0	90.0	93.0	97.0	101.0	106.0	109.0	111.0	111.0	110.0	108.0	106.0	105.0	105.0	106.0	108.0	111.0	113.0	114.0	115.0	114.0	113.0	112.0	112.0	111.0	110.0	108.0	106.0	103.0	99.0	96.0	92.0	89.0	85.0	82.0	80.0	78.0	76.0	76.0	77.0	79.0	81.0	84.0	87.0	90.0	95.0	101.0	108.0	116.0	122.0	126.0	128.0	128.0	128.0	127.0	127.0	128.0	129.0	131.0	135.0	138.0	140.0	143.0	144.0	144.0	142.0	135.0	125.0	112.0	98.0	87.0	79.0	76.0	74.0	73.0	73.0	72.0	72.0	73.0	75.0	76.0	78.0	78.0	78.0	78.0	78.0	78.0	78.0	79.0	82.0	85.0	90.0	96.0	103.0	110.0	116.0	120.0	122.0	123.0	122.0	121.0	119.0	117.0	115.0	112.0	110.0	107.0	104.0	100.0	98.0	95.0	93.0	91.0	89.0	87.0	86.0	85.0	85.0	85.0	86.0	87.0	89.0	91.0	94.0	98.0	101.0	105.0	107.0	108.0	109.0	108.0	108.0	107.0	106.0	105.0	106.0	108.0	111.0	116.0	121.0	126.0	128.0	130.0	131.0	130.0	128.0	125.0	121.0	116.0	111.0	106.0	101.0	95.0	91.0	87.0	85.0	84.0	85.0	86.0	87.0	88.0	89.0	90.0	91.0	92.0	94.0	95.0	97.0	99.0	100.0	102.0	105.0	107.0	110.0	112.0	114.0	116.0	117.0	118.0	121.0	123.0	127.0	131.0	135.0	138.0	141.0	141.0	140.0	137.0	132.0	127.0	120.0	112.0	105.0	98.0	92.0	87.0	82.0	79.0	77.0	76.0	76.0	78.0	81.0	85.0	91.0	97.0	103.0	106.0	106.0	102.0	97.0	91.0	87.0	85.0	84.0	84.0	83.0	82.0	81.0	81.0	81.0	81.0	83.0	85.0	88.0	91.0	95.0	97.0	99.0	98.0	95.0	91.0	87.0	82.0	77.0	73.0	70.0	67.0	64.0	63.0	61.0	61.0	61.0	62.0	63.0	66.0	69.0	71.0	73.0	74.0	75.0	75.0	76.0	77.0	79.0	81.0	83.0	84.0	84.0	83.0	83.0	84.0	85.0	88.0	92.0	96.0	100.0	105.0	109.0	112.0	114.0	114.0	112.0	108.0	104.0	98.0	93.0	89.0	84.0	81.0	78.0	76.0	75.0	76.0	77.0	79.0	83.0	87.0	93.0	99.0	105.0	110.0	115.0	119.0	121.0	123.0	125.0	127.0	127.0	127.0	125.0	122.0	119.0	116.0	114.0	113.0	113.0	114.0	116.0	119.0	121.0	123.0	123.0	121.0	118.0	114.0	109.0	105.0	101.0	99.0	98.0	97.0	96.0	96.0	95.0	94.0	93.0	94.0	94.0	95.0	97.0	98.0	100.0	102.0	103.0	103.0	103.0	103.0	102.0	101.0	99.0	97.0	94.0	93.0	92.0	92.0	93.0	95.0	98.0	101.0	105.0	109.0	111.0	111.0	109.0	105.0	99.0	92.0	85.0	79.0	73.0	69.0	66.0	65.0	65.0	66.0	68.0	70.0	73.0	76.0	79.0	81.0	83.0	83.0	83.0	84.0	85.0	87.0	90.0	94.0	98.0	102.0	105.0	106.0	106.0	106.0	105.0	105.0	105.0	106.0	108.0	112.0	117.0	122.0	126.0	127.0	126.0	122.0	117.0	112.0	108.0	106.0	106.0	106.0	106.0	107.0	106.0	105.0	103.0	100.0	98.0	95.0	93.0	92.0	93.0	94.0	96.0	99.0	103.0	107.0	111.0	114.0	116.0	117.0	117.0	117.0	117.0	116.0	115.0	114.0	113.0	111.0	109.0	107.0	106.0	105.0	105.0	105.0	106.0	106.0	105.0	103.0	100.0	96.0	92.0	89.0	88.0	87.0	88.0	89.0	92.0	94.0	96.0	98.0	100.0	101.0	101.0	101.0	100.0	100.0	101.0	102.0	104.0	106.0	106.0	106.0	104.0	101.0	98.0	96.0	95.0	94.0	93.0	92.0	90.0	89.0	88.0	87.0	87.0	88.0	91.0	95.0	100.0	104.0	107.0	108.0	107.0	104.0	101.0	96.0	92.0	88.0	84.0	81.0	79.0	78.0	77.0	78.0	79.0	82.0	85.0	88.0	91.0	93.0	95.0	95.0	95.0	95.0	95.0	94.0	94.0	93.0	93.0	93.0	94.0	94.0	94.0	93.0	92.0	90.0	88.0	86.0	84.0	83.0	83.0	85.0	88.0	92.0	95.0	98.0	100.0	101.0	102.0	102.0	104.0	105.0	107.0	109.0	110.0	110.0	110.0	109.0	108.0	107.0	107.0	106.0	107.0	107.0	108.0	109.0	109.0	108.0	107.0	106.0	103.0	101.0	98.0	95.0	92.0	89.0	86.0	84.0	83.0	82.0	83.0	83.0	85.0	87.0	90.0	93.0	97.0	101.0	104.0	105.0	105.0	104.0	102.0	100.0	98.0	97.0	97.0	97.0	98.0	98.0	98.0	96.0	94.0	92.0	91.0	91.0	91.0	92.0	94.0	96.0	98.0	99.0	100.0	100.0	99.0	98.0	96.0	94.0	92.0	89.0	86.0	83.0	81.0	80.0	81.0	83.0	86.0	90.0	95.0	101.0	106.0	111.0	114.0	116.0	117.0	117.0	116.0	114.0	112.0	108.0	104.0	100.0	97.0	94.0	92.0	91.0	93.0	95.0	98.0	101.0	104.0	105.0	106.0	105.0	104.0	102.0	100.0	97.0	95.0	93.0	91.0	90.0	88.0	87.0	87.0	88.0	90.0	94.0	99.0	104.0	108.0	111.0	112.0	112.0	111.0	108.0	105.0	101.0	98.0	96.0	94.0	93.0	93.0	92.0	92.0	93.0	95.0	97.0	101.0	104.0	107.0	108.0	108.0	107.0	106.0	103.0	100.0	97.0	93.0	90.0	88.0	86.0	85.0	85.0	86.0	87.0	89.0	93.0	96.0	100.0	103.0	105.0	107.0	108.0	108.0	108.0	108.0	106.0	105.0	104.0	103.0	103.0	102.0	102.0	101.0	100.0	99.0	98.0	97.0	97.0	97.0	97.0	97.0	98.0	98.0	98.0	97.0	96.0	95.0	93.0	91.0	89.0	87.0	87.0	87.0	90.0	93.0	98.0	104.0	108.0	111.0	112.0	111.0	110.0	108.0	106.0	106.0	105.0	104.0	102.0	101.0	99.0	97.0	95.0	94.0	93.0	93.0	93.0	94.0	96.0	99.0	102.0	105.0	107.0	108.0	107.0	106.0	104.0	102.0	99.0	97.0	95.0	93.0	93.0	94.0	97.0	100.0	104.0	107.0	109.0	109.0	108.0	106.0	103.0	100.0	99.0	98.0	98.0	98.0	99.0	100.0	100.0	100.0	99.0	98.0	97.0	96.0	96.0	97.0	98.0	100.0	101.0	102.0	103.0	103.0	102.0	101.0	100.0	97.0	94.0	91.0	87.0	84.0	82.0	83.0	85.0	89.0	92.0	96.0	97.0	98.0	97.0	96.0	93.0	90.0	87.0	83.0	80.0	78.0	76.0	76.0	76.0	77.0	79.0	82.0	84.0	86.0	87.0	87.0	85.0	85.0	85.0	86.0	89.0	91.0	94.0	96.0	99.0	100.0	100.0	98.0	96.0	93.0	90.0	87.0	87.0	87.0	90.0	93.0	96.0	99.0	100.0	100.0	99.0	98.0	96.0	95.0	94.0	94.0	95.0	97.0	100.0	103.0	107.0	111.0	114.0	116.0	118.0	119.0	121.0	122.0	122.0	121.0	119.0	116.0	114.0	111.0	110.0	108.0	106.0	104.0	101.0	97.0	94.0	90.0	87.0	84.0	81.0	80.0	80.0	82.0	87.0	94.0	102.0	110.0	116.0	120.0	122.0	122.0	120.0	117.0	114.0	111.0	109.0	108.0	107.0	107.0	107.0	108.0	109.0	110.0	111.0	112.0	112.0	112.0	112.0	112.0	112.0	113.0	113.0	112.0	111.0	109.0	106.0	103.0	99.0	96.0	93.0	90.0	88.0	87.0	87.0	86.0	86.0	86.0	88.0	90.0	95.0	101.0	106.0	112.0	116.0	118.0	121.0	122.0	124.0	124.0	123.0	120.0	117.0	112.0	108.0	105.0	103.0	103.0	102.0	102.0	102.0	102.0	102.0	101.0	101.0	100.0	98.0	95.0	92.0	89.0	86.0	83.0	80.0	78.0	76.0	74.0	73.0	72.0	71.0	70.0	70.0	71.0	72.0	76.0	81.0	87.0	93.0	99.0	104.0	108.0	109.0	110.0	111.0	112.0	113.0	113.0	112.0	111.0	109.0	108.0	107.0	107.0	107.0	107.0	106.0	106.0	106.0	106.0	105.0	104.0	102.0	100.0	98.0	96.0	95.0	93.0	91.0	89.0	87.0	85.0	83.0	82.0	80.0	79.0	80.0	81.0	85.0	90.0	97.0	104.0	110.0	116.0	120.0	122.0	122.0	121.0	119.0	116.0	113.0	110.0	108.0	105.0	103.0	102.0	102.0	102.0	104.0	105.0	106.0	106.0	104.0	102.0	99.0	96.0	92.0	89.0	86.0	84.0	82.0	81.0	81.0	81.0	82.0	84.0	85.0	87.0	89.0	91.0	93.0	97.0	101.0	107.0	112.0	117.0	122.0	126.0	127.0	127.0	124.0	118.0	112.0	106.0	102.0	100.0	98.0	96.0	93.0	90.0	88.0	86.0	85.0	85.0	84.0	84.0	83.0	82.0	82.0	81.0	80.0	78.0	77.0	76.0	76.0	75.0	76.0	77.0	79.0	83.0	87.0	92.0	98.0	105.0	111.0	117.0	121.0	99.0	100.0	101.0	103.0	105.0	108.0	113.0	118.0	122.0	126.0	127.0	128.0	127.0	127.0	125.0	123.0	119.0	116.0	112.0	108.0	106.0	104.0	103.0	103.0	102.0	102.0	101.0	100.0	99.0	97.0	96.0	94.0	94.0	93.0	92.0	92.0	92.0	91.0	90.0	90.0	89.0	88.0	88.0	88.0	89.0	91.0	94.0	100.0	106.0	113.0	119.0	124.0	127.0	128.0	129.0	128.0	127.0	126.0	123.0	120.0	118.0	114.0	111.0	108.0	106.0	104.0	103.0	103.0	102.0	102.0	100.0	98.0	96.0	93.0	90.0	88.0	86.0	84.0	83.0	83.0	84.0	86.0	88.0	91.0	95.0	98.0	101.0	102.0	103.0	102.0	102.0	102.0	103.0	106.0	111.0	116.0	121.0	125.0	126.0	125.0	121.0	116.0	110.0	104.0	99.0	96.0	93.0	90.0	89.0	88.0	87.0	87.0	87.0	88.0	89.0	90.0	92.0	92.0	93.0	93.0	93.0	92.0	91.0	90.0	88.0	86.0	84.0	83.0	82.0	82.0	83.0	85.0	87.0	90.0	93.0	97.0	102.0	106.0	111.0	114.0	117.0	119.0	120.0	121.0	120.0	119.0	117.0	114.0	110.0	106.0	102.0	99.0	96.0	95.0	94.0	94.0	94.0	93.0	93.0	92.0	90.0	89.0	89.0	89.0	89.0	90.0	91.0	92.0	93.0	94.0	95.0	95.0	95.0	95.0	94.0	93.0	92.0	90.0	88.0	87.0	86.0	86.0	88.0	90.0	94.0	97.0	101.0	104.0	107.0	108.0	109.0	109.0	107.0	104.0	101.0	98.0	95.0	92.0	90.0	89.0	88.0	87.0	87.0	87.0	88.0	88.0	89.0	89.0	91.0	92.0	93.0	93.0	93.0	93.0	93.0	94.0	96.0	98.0	100.0	103.0	105.0	107.0	108.0	110.0	111.0	112.0	112.0	112.0	110.0	109.0	109.0	110.0	113.0	117.0	120.0	122.0	122.0	120.0	117.0	113.0	109.0	106.0	104.0	102.0	99.0	97.0	94.0	92.0	90.0	88.0	88.0	89.0	91.0	93.0	95.0	96.0	96.0	95.0	94.0	91.0	89.0	86.0	82.0	79.0	76.0	73.0	72.0	71.0	72.0	73.0	76.0	80.0	83.0	87.0	91.0	94.0	98.0	101.0	105.0	107.0	108.0	107.0	106.0	105.0	103.0	101.0	100.0	98.0	96.0	94.0	93.0	92.0	91.0	90.0	89.0	88.0	87.0	87.0	87.0	87.0	87.0	87.0	87.0	88.0	89.0	90.0	92.0	94.0	96.0	100.0	104.0	109.0	115.0	121.0	127.0	131.0	134.0	135.0	135.0	135.0	137.0	139.0	142.0	145.0	146.0	145.0	142.0	138.0	133.0	128.0	123.0	117.0	112.0	108.0	104.0	100.0	98.0	95.0	94.0	93.0	93.0	94.0	95.0	95.0	95.0	95.0	94.0	93.0	91.0	88.0	85.0	82.0	78.0	74.0	71.0	67.0	64.0	61.0	59.0	57.0	56.0	57.0	58.0	61.0	66.0	71.0	77.0	83.0	88.0	93.0	96.0	98.0	99.0	98.0	96.0	94.0	92.0	91.0	90.0	89.0	88.0	87.0	86.0	85.0	84.0	84.0	84.0	84.0	84.0	84.0	84.0	85.0	85.0	86.0	86.0	88.0	89.0	92.0	95.0	98.0	102.0	107.0	111.0	115.0	120.0	124.0	127.0	128.0	130.0	130.0	131.0	133.0	135.0	137.0	139.0	140.0	140.0	137.0	134.0	129.0	125.0	120.0	114.0	109.0	105.0	102.0	99.0	97.0	96.0	95.0	95.0	95.0	97.0	99.0	101.0	103.0	104.0	103.0	101.0	98.0	94.0	89.0	85.0	82.0	79.0	76.0	74.0	73.0	73.0	75.0	77.0	81.0	85.0	90.0	94.0	98.0	102.0	105.0	107.0	108.0	107.0	105.0	102.0	98.0	95.0	92.0	88.0	86.0	83.0	82.0	81.0	82.0	84.0	87.0	90.0	92.0	94.0	96.0	97.0	97.0	97.0	97.0	98.0	98.0	99.0	101.0	103.0	105.0	107.0	109.0	111.0	114.0	116.0	119.0	122.0	125.0	126.0	127.0	128.0	129.0	132.0	134.0	136.0	136.0	134.0	132.0	128.0	125.0	121.0	117.0	113.0	109.0	105.0	102.0	99.0	96.0	92.0	88.0	85.0	82.0	81.0	80.0	81.0	82.0	85.0	86.0	88.0	89.0	89.0	88.0	86.0	83.0	80.0	78.0	77.0	77.0	79.0	81.0	84.0	89.0	94.0	100.0	107.0	113.0	117.0	120.0	120.0	119.0	116.0	113.0	109.0	106.0	101.0	97.0	93.0	91.0	89.0	89.0	90.0	91.0	93.0	95.0	98.0	101.0	103.0	104.0	104.0	104.0	103.0	102.0	101.0	101.0	101.0	101.0	102.0	103.0	104.0	105.0	107.0	108.0	109.0	110.0	111.0	112.0	113.0	114.0	116.0	119.0	122.0	124.0	124.0	121.0	117.0	112.0	108.0	104.0	101.0	99.0	97.0	96.0	95.0	94.0	93.0	92.0	91.0	90.0	89.0	89.0	89.0	89.0	89.0	89.0	88.0	89.0	90.0	91.0	92.0	93.0	94.0	94.0	94.0	95.0	96.0	97.0	98.0	99.0	99.0	99.0	98.0	98.0	98.0	99.0	101.0	103.0	106.0	109.0	112.0	113.0	113.0	111.0	109.0	107.0	105.0	104.0	103.0	103.0	104.0	105.0	105.0	106.0	106.0	106.0	105.0	105.0	104.0	103.0	102.0	101.0	100.0	99.0	100.0	101.0	102.0	103.0	105.0	107.0	108.0	108.0	108.0	106.0	103.0	99.0	94.0	91.0	88.0	87.0	88.0	89.0	89.0	90.0	90.0	90.0	92.0	95.0	99.0	103.0	107.0	109.0	110.0	108.0	105.0	101.0	96.0	93.0	90.0	88.0	88.0	90.0	93.0	97.0	100.0	102.0	103.0	101.0	99.0	97.0	95.0	94.0	94.0	94.0	95.0	96.0	97.0	97.0	96.0	94.0	91.0	87.0	84.0	81.0	79.0	78.0	78.0	79.0	80.0	82.0	83.0	85.0	86.0	86.0	86.0	86.0	87.0	90.0	94.0	99.0	105.0	110.0	114.0	116.0	116.0	114.0	111.0	107.0	103.0	99.0	97.0	95.0	95.0	96.0	98.0	100.0	104.0	106.0	108.0	109.0	108.0	107.0	105.0	103.0	102.0	102.0	102.0	101.0	100.0	97.0	94.0	91.0	88.0	86.0	85.0	84.0	84.0	84.0	84.0	84.0	84.0	84.0	85.0	87.0	91.0	97.0	106.0	117.0	128.0	138.0	146.0	150.0	151.0	148.0	143.0	138.0	135.0	134.0	135.0	139.0	144.0	149.0	154.0	157.0	156.0	151.0	141.0	129.0	117.0	105.0	94.0	86.0	80.0	75.0	73.0	72.0	72.0	74.0	77.0	80.0	84.0	89.0	94.0	100.0	105.0	110.0	111.0	110.0	105.0	99.0	92.0	86.0	84.0	84.0	87.0	91.0	97.0	103.0	108.0	113.0	117.0	119.0	120.0	119.0	115.0	109.0	102.0	94.0	88.0	83.0	80.0	77.0	74.0	72.0	69.0	68.0	67.0	67.0	68.0	68.0	69.0	70.0	72.0	73.0	75.0	76.0	77.0	79.0	82.0	86.0	90.0	93.0	94.0	94.0	92.0	89.0	86.0	83.0	81.0	80.0	83.0	87.0	94.0	103.0	112.0	122.0	128.0	132.0	133.0	129.0	124.0	116.0	109.0	102.0	97.0	93.0	88.0	84.0	80.0	78.0	76.0	75.0	75.0	75.0	76.0	78.0	80.0	82.0	84.0	85.0	86.0	87.0	87.0	87.0	87.0	88.0	89.0	90.0	92.0	93.0	95.0	97.0	99.0	101.0	104.0	107.0	111.0	115.0	120.0	124.0	127.0	128.0	129.0	128.0	127.0	124.0	119.0	114.0	109.0	105.0	101.0	98.0	94.0	91.0	89.0	87.0	86.0	86.0	86.0	87.0	88.0	89.0	90.0	90.0	89.0	87.0	86.0	83.0	80.0	77.0	74.0	71.0	68.0	66.0	66.0	67.0	70.0	76.0	83.0	90.0	95.0	100.0	103.0	105.0	107.0	109.0	110.0	110.0	108.0	105.0	101.0	98.0	95.0	94.0	93.0	92.0	92.0	92.0	92.0	92.0	91.0	91.0	91.0	91.0	92.0	92.0	92.0	92.0	92.0	92.0	93.0	94.0	96.0	98.0	101.0	105.0	110.0	116.0	122.0	126.0	128.0	128.0	127.0	123.0	118.0	114.0	111.0	110.0	109.0	109.0	109.0	109.0	109.0	108.0	108.0	107.0	105.0	103.0	101.0	98.0	94.0	91.0	88.0	84.0	81.0	79.0	78.0	78.0	80.0	83.0	86.0	88.0	89.0	87.0	83.0	78.0	72.0	67.0	63.0	62.0	63.0	66.0	70.0	74.0	77.0	79.0	80.0	80.0	79.0	78.0	78.0	79.0	82.0	87.0	92.0	98.0	104.0	108.0	110.0	111.0	110.0	109.0	107.0	104.0	101.0	99.0	96.0	93.0	90.0	88.0	86.0	86.0	88.0	91.0	95.0	99.0	103.0	106.0	108.0	111.0	115.0	118.0	123.0	127.0	129.0	131.0	131.0	130.0	128.0	126.0	122.0	119.0	115.0	112.0	109.0	107.0	108.0	111.0	116.0	122.0	126.0	128.0	128.0	127.0	123.0	119.0	114.0	110.0	106.0	103.0	101.0	100.0	100.0	99.0	99.0	99.0	99.0	99.0	98.0	97.0	96.0	94.0	93.0	92.0	91.0	91.0	91.0	92.0	93.0	94.0	95.0	96.0	97.0	98.0	100.0	102.0	104.0	105.0	106.0	107.0	109.0	110.0	112.0	114.0	115.0	116.0	115.0	114.0	111.0	108.0	104.0	100.0	97.0	94.0	92.0	92.0	92.0	93.0	95.0	96.0	97.0	98.0	99.0	100.0	102.0	104.0	106.0	108.0	108.0	108.0	107.0	106.0	105.0	105.0	105.0	104.0	103.0	101.0	99.0	97.0	96.0	96.0	95.0	95.0	95.0	95.0	95.0	96.0	98.0	100.0	101.0	102.0	102.0	101.0	98.0	95.0	92.0	89.0	86.0	85.0	85.0	86.0	86.0	87.0	87.0	87.0	88.0	88.0	87.0	86.0	86.0	87.0	88.0	90.0	91.0	91.0	92.0	93.0	95.0	98.0	101.0	103.0	105.0	105.0	105.0	104.0	101.0	99.0	96.0	92.0	89.0	87.0	86.0	87.0	89.0	91.0	94.0	97.0	98.0	99.0	99.0	99.0	100.0	101.0	103.0	105.0	108.0	110.0	112.0	113.0	114.0	114.0	114.0	114.0	114.0	114.0	114.0	114.0	113.0	113.0	112.0	111.0	110.0	109.0	108.0	108.0	107.0	106.0	105.0	103.0	102.0	99.0	97.0	94.0	92.0	90.0	88.0	87.0	88.0	91.0	95.0	101.0	106.0	111.0	114.0	116.0	115.0	113.0	111.0	108.0	106.0	105.0	104.0	103.0	103.0	102.0	102.0	102.0	103.0	103.0	104.0	105.0	106.0	107.0	108.0	108.0	108.0	108.0	106.0	104.0	101.0	98.0	95.0	92.0	90.0	88.0	87.0	87.0	86.0	86.0	86.0	87.0	88.0	90.0	92.0	95.0	100.0	104.0	109.0	113.0	117.0	119.0	121.0	123.0	124.0	124.0	124.0	122.0	121.0	118.0	116.0	113.0	112.0	110.0	109.0	108.0	106.0	104.0	101.0	98.0	96.0	95.0	94.0	94.0	94.0	94.0	94.0	93.0	93.0	92.0	92.0	92.0	91.0	89.0	86.0	83.0	81.0	80.0	81.0	82.0	85.0	87.0	90.0	93.0	97.0	102.0	106.0	109.0	110.0	110.0	107.0	104.0	99.0	95.0	92.0	89.0	88.0	87.0	87.0	86.0	85.0	85.0	84.0	84.0	85.0	86.0	86.0	86.0	85.0	83.0	82.0	79.0	77.0	75.0	73.0	71.0	70.0	69.0	70.0	71.0	72.0	75.0	79.0	83.0	87.0	91.0	94.0	97.0	100.0	104.0	109.0	114.0	119.0	124.0	127.0	129.0	131.0	131.0	130.0	128.0	126.0	122.0	117.0	112.0	108.0	104.0	101.0	99.0	98.0	97.0	96.0	96.0	96.0	96.0	95.0	94.0	93.0	92.0	91.0	91.0	92.0	93.0	94.0	96.0	98.0	100.0	102.0	104.0	105.0	106.0	107.0	108.0	109.0	109.0	109.0	109.0	109.0	110.0	112.0	115.0	118.0	120.0	122.0	122.0	121.0	118.0	115.0	111.0	107.0	103.0	100.0	97.0	95.0	93.0	91.0	90.0	88.0	86.0	84.0	83.0	82.0	82.0	82.0	81.0	80.0	80.0	81.0	83.0	86.0	89.0	93.0	98.0	102.0	106.0	111.0	115.0	119.0	122.0	123.0	123.0	122.0	121.0	121.0	122.0	125.0	127.0	127.0	127.0	124.0	120.0	116.0	112.0	109.0	106.0	103.0	101.0	98.0	95.0	91.0	88.0	84.0	80.0	77.0	75.0	74.0	74.0	75.0	76.0	79.0	81.0	82.0	84.0	85.0	87.0	89.0	92.0	95.0	97.0	98.0	98.0	97.0	97.0	97.0	98.0	99.0	102.0	105.0	110.0	116.0	122.0	127.0	128.0	127.0	125.0	121.0	116.0	111.0	107.0	103.0	99.0	96.0	93.0	90.0	87.0	84.0	82.0	80.0	79.0	79.0	80.0	82.0	84.0	87.0	90.0	93.0	96.0	99.0	102.0	105.0	107.0	109.0	109.0	109.0	108.0	107.0	107.0	107.0	107.0	107.0	108.0	109.0	111.0	113.0	116.0	119.0	121.0	121.0	120.0	117.0	113.0	108.0	103.0	98.0	93.0	90.0	88.0	87.0	88.0	90.0	93.0	96.0	98.0	101.0	104.0	107.0	109.0	111.0	112.0	113.0	114.0	114.0	114.0	113.0	111.0	108.0	105.0	102.0	100.0	98.0	97.0	96.0	96.0	96.0	95.0	95.0	94.0	95.0	96.0	97.0	98.0	98.0	98.0	96.0	94.0	92.0	90.0	88.0	86.0	84.0	82.0	80.0	78.0	78.0	78.0	80.0	83.0	86.0	89.0	93.0	97.0	101.0	104.0	106.0	107.0	106.0	105.0	103.0	102.0	101.0	101.0	101.0	100.0	99.0	97.0	96.0	95.0	95.0	96.0	97.0	99.0	102.0	104.0	104.0	104.0	102.0	99.0	95.0	92.0	90.0	88.0	88.0	88.0	88.0	88.0	88.0	88.0	89.0	90.0	91.0	93.0	95.0	96.0	96.0	95.0	95.0	95.0	96.0	96.0	96.0	96.0	96.0	96.0	97.0	97.0	98.0	98.0	97.0	96.0	93.0	90.0	86.0	83.0	82.0	82.0	84.0	88.0	92.0	95.0	96.0	96.0	94.0	91.0	88.0	85.0	83.0	82.0	83.0	85.0	87.0	90.0	93.0	96.0	100.0	104.0	107.0	110.0	112.0	114.0	115.0	116.0	117.0	118.0	117.0	117.0	116.0	115.0	113.0	112.0	110.0	109.0	107.0	106.0	104.0	103.0	101.0	99.0	96.0	95.0	94.0	95.0	97.0	101.0	105.0	108.0	110.0	112.0	114.0	116.0	116.0	117.0	116.0	115.0	113.0	111.0	108.0	106.0	104.0	102.0	100.0	99.0	99.0	99.0	100.0	101.0	102.0	103.0	103.0	104.0	104.0	104.0	104.0	104.0	103.0	103.0	102.0	101.0	101.0	100.0	99.0	97.0	97.0	96.0	96.0	97.0	98.0	100.0	103.0	107.0	110.0	113.0	114.0	114.0	112.0	111.0	110.0	109.0	109.0	109.0	109.0	108.0	107.0	107.0	106.0	107.0	108.0	110.0	111.0	112.0	113.0	112.0	111.0	109.0	108.0	107.0	105.0	104.0	101.0	99.0	96.0	94.0	93.0	92.0	91.0	90.0	91.0	91.0	93.0	94.0	97.0	100.0	104.0	108.0	113.0	117.0	119.0	119.0	118.0	116.0	113.0	111.0	109.0	108.0	107.0	106.0	105.0	103.0	102.0	101.0	100.0	100.0	101.0	101.0	100.0	99.0	98.0	97.0	95.0	92.0	90.0	87.0	85.0	83.0	81.0	80.0	79.0	78.0	77.0	76.0	75.0	75.0	76.0	78.0	82.0	87.0	92.0	98.0	103.0	107.0	110.0	113.0	115.0	116.0	116.0	115.0	113.0	111.0	109.0	107.0	106.0	105.0	104.0	103.0	102.0	101.0	100.0	100.0	99.0	98.0	97.0	95.0	92.0	90.0	87.0	84.0	82.0	80.0	79.0	78.0	77.0	77.0	78.0	79.0	80.0	82.0	83.0	85.0	88.0	90.0	94.0	98.0	102.0	105.0	108.0	110.0	111.0	112.0	112.0	111.0	109.0	107.0	105.0	103.0	101.0	100.0	99.0	99.0	99.0	99.0	100.0	100.0	100.0	100.0	98.0	96.0	94.0	91.0	89.0	88.0	87.0	85.0	84.0	83.0	82.0	81.0	81.0	83.0	84.0	87.0	89.0	92.0	94.0	97.0	101.0	105.0	110.0	114.0	117.0	119.0	120.0	120.0	120.0	120.0	119.0	118.0	116.0	114.0	112.0	110.0	107.0	104.0	102.0	99.0	97.0	95.0	94.0	93.0	92.0	90.0	89.0	88.0	87.0	86.0	86.0	86.0	87.0	89.0	92.0	95.0	98.0	101.0	103.0	104.0	104.0	104.0	104.0	104.0	104.0	106.0	108.0	112.0	117.0	120.0	122.0	123.0	122.0	122.0	121.0	120.0	119.0	118.0	116.0	114.0	111.0	108.0	105.0	101.0	98.0	94.0	91.0	89.0	87.0	85.0	84.0	83.0	82.0	82.0	81.0	82.0	83.0	85.0	86.0	88.0	90.0	91.0	92.0	93.0	95.0	96.0	97.0	100.0	103.0	107.0	111.0	115.0	119.0	121.0	122.0	122.0	120.0	118.0	115.0	111.0	107.0	103.0	99.0	96.0	94.0	92.0	90.0	89.0	89.0	89.0	90.0	91.0	92.0	94.0	96.0	98.0	99.0	100.0	100.0	100.0	100.0	99.0	98.0	96.0	95.0	93.0	91.0	90.0	90.0	92.0	94.0	97.0	100.0	104.0	107.0	110.0	112.0	113.0	113.0	112.0	111.0	109.0	108.0	106.0	103.0	101.0	98.0	95.0	93.0	92.0	90.0	89.0	88.0	88.0	87.0	87.0	88.0	88.0	88.0	88.0	88.0	88.0	89.0	91.0	94.0	96.0	99.0	100.0	101.0	101.0	101.0	100.0	100.0	100.0	100.0	102.0	104.0	107.0	111.0	114.0	117.0	118.0	119.0	118.0	115.0	112.0	109.0	105.0	101.0	97.0	93.0	91.0	89.0	89.0	90.0	92.0	94.0	96.0	99.0	101.0	103.0	104.0	106.0	106.0	106.0	106.0	104.0	102.0	100.0	99.0	99.0	99.0	99.0	98.0	97.0	95.0	93.0	90.0	88.0	88.0	90.0	94.0	99.0	104.0	109.0	113.0	115.0	115.0	113.0	110.0	106.0	102.0	99.0	96.0	94.0	93.0	92.0	90.0	89.0	88.0	87.0	86.0	86.0	86.0	87.0	88.0	90.0	92.0	94.0	97.0	99.0	102.0	103.0	103.0	102.0	101.0	99.0	98.0	97.0	97.0	96.0	97.0	97.0	99.0	101.0	103.0	106.0	108.0	110.0	109.0	108.0	105.0	101.0	97.0	92.0	88.0	85.0	83.0	83.0	84.0	86.0	89.0	93.0	96.0	99.0	103.0	105.0	107.0	107.0	107.0	104.0	101.0	98.0	96.0	94.0	94.0	94.0	94.0	94.0	92.0	90.0	87.0	85.0	84.0	84.0	85.0	87.0	89.0	92.0	96.0	99.0	103.0	107.0	110.0	112.0	112.0	110.0	108.0	106.0	104.0	102.0	100.0	99.0	98.0	96.0	96.0	96.0	97.0	98.0	100.0	101.0	101.0	102.0	103.0	105.0	106.0	108.0	109.0	110.0	109.0	109.0	108.0	106.0	105.0	103.0	102.0	100.0	98.0	96.0	94.0	92.0	91.0	90.0	89.0	88.0	87.0	87.0	87.0	89.0	92.0	95.0	99.0	102.0	103.0	104.0	103.0	102.0	101.0	101.0	101.0	101.0	101.0	100.0	97.0	94.0	90.0	86.0	81.0	78.0	75.0	73.0	71.0	70.0	68.0	66.0	64.0	62.0	60.0	59.0	58.0	58.0	57.0	57.0	57.0	56.0	56.0	54.0	53.0	52.0	52.0	53.0	56.0	60.0	66.0	71.0	76.0	80.0	83.0	83.0	82.0	81.0	79.0	79.0	79.0	80.0	83.0	86.0	89.0	92.0	94.0	96.0	98.0	101.0	104.0	108.0	112.0	115.0	117.0	119.0	121.0	121.0	121.0	120.0	118.0	117.0	115.0	113.0	112.0	111.0	109.0	107.0	105.0	103.0	101.0	100.0	101.0	102.0	103.0	105.0	108.0	112.0	117.0	122.0	127.0	132.0	135.0	136.0	135.0	132.0	129.0	126.0	123.0	120.0	119.0	117.0	116.0	113.0	110.0	107.0	105.0	102.0	100.0	99.0	98.0	96.0	94.0	92.0	89.0	86.0	83.0	80.0	79.0	79.0	80.0	82.0	83.0	84.0	84.0	84.0	83.0	81.0	80.0	79.0	78.0	79.0	80.0	84.0	88.0	94.0	100.0	104.0	108.0	110.0	111.0	110.0	110.0	109.0	109.0	110.0	111.0	113.0	116.0	118.0	120.0	122.0	123.0	124.0	125.0	125.0	125.0	125.0	123.0	121.0	118.0	115.0	111.0	108.0	105.0	104.0	103.0	103.0	103.0	103.0	104.0	105.0	106.0	109.0	110.0	111.0	112.0	111.0	111.0	110.0	110.0	111.0	114.0	117.0	121.0	124.0	126.0	127.0	127.0	125.0	122.0	118.0	115.0	111.0	109.0	108.0	107.0	106.0	105.0	103.0	100.0	97.0	93.0	90.0	89.0	89.0	89.0	90.0	90.0	89.0	88.0	86.0	84.0	83.0	82.0	82.0	82.0	83.0	84.0	85.0	87.0	88.0	90.0	91.0	93.0	95.0	98.0	102.0	107.0	114.0	121.0	128.0	134.0	138.0	139.0	136.0	132.0	128.0	125.0	122.0	119.0	117.0	116.0	114.0	112.0	111.0	110.0	108.0	107.0	107.0	108.0	109.0	110.0	110.0	109.0	106.0	104.0	102.0	99.0	97.0	95.0	93.0	90.0	88.0	86.0	84.0	84.0	84.0	84.0	86.0	87.0	88.0	88.0	88.0	87.0	86.0	85.0	83.0	82.0	81.0	78.0	76.0	74.0	73.0	73.0	74.0	76.0	77.0	77.0	77.0	76.0	76.0	77.0	77.0	78.0	79.0	79.0	80.0	81.0	82.0	83.0	85.0	86.0	87.0	88.0	90.0	92.0	94.0	97.0	100.0	103.0	106.0	109.0	113.0	118.0	123.0	127.0	131.0	134.0	135.0	134.0	132.0	129.0	127.0	123.0	119.0	116.0	112.0	108.0	104.0	101.0	99.0	97.0	95.0	95.0	96.0	98.0	102.0	106.0	110.0	114.0	117.0	119.0	120.0	121.0	121.0	120.0	120.0	119.0	118.0	117.0	116.0	115.0	114.0	113.0	112.0	111.0	109.0	108.0	108.0	109.0	111.0	113.0	116.0	118.0	118.0	118.0	117.0	116.0	115.0	114.0	113.0	112.0	111.0	110.0	108.0	107.0	105.0	103.0	100.0	98.0	96.0	95.0	94.0	94.0	94.0	95.0	96.0	98.0	100.0	102.0	104.0	106.0	107.0	106.0	105.0	104.0	102.0	100.0	99.0	97.0	97.0	96.0	97.0	99.0	103.0	107.0	112.0	117.0	120.0	121.0	120.0	118.0	116.0	113.0	111.0	109.0	108.0	108.0	108.0	108.0	108.0	109.0	109.0	110.0	111.0	110.0	108.0	105.0	101.0	97.0	95.0	95.0	95.0	96.0	96.0	95.0	95.0	94.0	94.0	94.0	93.0	92.0	92.0	91.0	91.0	92.0	94.0	97.0	100.0	102.0	104.0	104.0	104.0	103.0	103.0	102.0	102.0	103.0	105.0	108.0	112.0	115.0	118.0	119.0	119.0	117.0	115.0	113.0	112.0	111.0	111.0	111.0	112.0	113.0	113.0	114.0	114.0	115.0	115.0	114.0	113.0	113.0	113.0	113.0	114.0	115.0	115.0	116.0	116.0	118.0	120.0	122.0	125.0	127.0	127.0	127.0	125.0	122.0	120.0	117.0	116.0	114.0	113.0	112.0	111.0	109.0	106.0	103.0	100.0	98.0	96.0	96.0	95.0	94.0	92.0	91.0	90.0	89.0	88.0	87.0	85.0	84.0	81.0	78.0	75.0	72.0	69.0	66.0	65.0	64.0	64.0	65.0	66.0	67.0	69.0	71.0	74.0	77.0	80.0	84.0	87.0	89.0	89.0	89.0	88.0	86.0	84.0	82.0	81.0	81.0	81.0	82.0	84.0	86.0	88.0	91.0	94.0	97.0	99.0	102.0	103.0	104.0	103.0	102.0	100.0	99.0	99.0	98.0	105.0	105.0	106.0	106.0	106.0	106.0	106.0	106.0	105.0	104.0	103.0	101.0	99.0	98.0	97.0	96.0	95.0	92.0	88.0	83.0	78.0	73.0	70.0	69.0	70.0	73.0	78.0	84.0	91.0	98.0	104.0	108.0	111.0	111.0	110.0	108.0	106.0	104.0	103.0	102.0	101.0	99.0	98.0	95.0	93.0	92.0	90.0	89.0	89.0	89.0	91.0	92.0	94.0	96.0	97.0	98.0	97.0	96.0	95.0	94.0	94.0	93.0	93.0	94.0	94.0	95.0	95.0	96.0	98.0	100.0	104.0	108.0	114.0	120.0	125.0	127.0	129.0	129.0	127.0	124.0	120.0	115.0	110.0	106.0	103.0	101.0	99.0	96.0	94.0	92.0	90.0	88.0	87.0	85.0	83.0	82.0	82.0	83.0	85.0	87.0	89.0	89.0	87.0	83.0	80.0	76.0	73.0	71.0	71.0	71.0	72.0	73.0	76.0	79.0	82.0	86.0	91.0	95.0	100.0	104.0	106.0	107.0	107.0	105.0	104.0	102.0	101.0	102.0	102.0	103.0	103.0	102.0	100.0	98.0	95.0	94.0	94.0	95.0	97.0	100.0	103.0	105.0	105.0	105.0	103.0	101.0	98.0	95.0	92.0	89.0	87.0	84.0	81.0	78.0	76.0	75.0	75.0	76.0	80.0	85.0	90.0	95.0	99.0	102.0	104.0	106.0	109.0	111.0	114.0	115.0	115.0	115.0	115.0	114.0	114.0	114.0	114.0	113.0	111.0	108.0	104.0	100.0	96.0	93.0	91.0	89.0	87.0	85.0	83.0	81.0	80.0	80.0	80.0	79.0	79.0	79.0	78.0	77.0	77.0	78.0	80.0	81.0	83.0	85.0	87.0	88.0	88.0	89.0	89.0	90.0	91.0	92.0	94.0	97.0	100.0	103.0	105.0	107.0	108.0	108.0	108.0	107.0	107.0	108.0	108.0	109.0	110.0	110.0	110.0	111.0	112.0	112.0	112.0	111.0	110.0	110.0	109.0	110.0	111.0	113.0	115.0	117.0	119.0	120.0	120.0	119.0	118.0	115.0	112.0	108.0	104.0	100.0	95.0	92.0	90.0	91.0	93.0	98.0	103.0	108.0	111.0	113.0	114.0	115.0	115.0	116.0	118.0	119.0	121.0	122.0	123.0	122.0	121.0	118.0	115.0	111.0	108.0	105.0	103.0	100.0	96.0	92.0	88.0	85.0	82.0	81.0	80.0	80.0	80.0	80.0	79.0	78.0	77.0	75.0	75.0	74.0	75.0	77.0	80.0	83.0	86.0	88.0	90.0	92.0	93.0	94.0	95.0	96.0	97.0	100.0	103.0	106.0	108.0	108.0	105.0	101.0	96.0	92.0	88.0	85.0	82.0	79.0	77.0	76.0	76.0	76.0	77.0	78.0	80.0	83.0	86.0	89.0	91.0	91.0	90.0	87.0	83.0	79.0	75.0	71.0	68.0	66.0	65.0	65.0	67.0	69.0	73.0	76.0	80.0	83.0	86.0	89.0	92.0	94.0	96.0	97.0	97.0	96.0	95.0	94.0	92.0	90.0	88.0	86.0	83.0	81.0	78.0	74.0	71.0	68.0	67.0	66.0	66.0	68.0	69.0	71.0	72.0	74.0	76.0	79.0	82.0	86.0	89.0	93.0	97.0	101.0	106.0	112.0	118.0	124.0	129.0	136.0	142.0	148.0	152.0	155.0	156.0	155.0	152.0	149.0	145.0	141.0	138.0	135.0	132.0	129.0	127.0	125.0	124.0	124.0	124.0	125.0	127.0	129.0	131.0	133.0	135.0	137.0	139.0	141.0	142.0	142.0	141.0	137.0	131.0	125.0	116.0	107.0	99.0	91.0	84.0	77.0	71.0	66.0	61.0	56.0	54.0	55.0	58.0	63.0	69.0	75.0	81.0	85.0	88.0	89.0	89.0	89.0	89.0	88.0	89.0	89.0	89.0	90.0	91.0	93.0	94.0	95.0	96.0	96.0	96.0	95.0	94.0	92.0	90.0	89.0	89.0	90.0	92.0	95.0	98.0	102.0	104.0	107.0	109.0	109.0	110.0	111.0	113.0	116.0	121.0	126.0	130.0	135.0	139.0	141.0	143.0	142.0	141.0	138.0	136.0	133.0	131.0	128.0	124.0	118.0	112.0	106.0	102.0	100.0	100.0	102.0	106.0	109.0	113.0	115.0	117.0	118.0	119.0	119.0	117.0	113.0	107.0	101.0	94.0	87.0	81.0	76.0	72.0	68.0	65.0	62.0	59.0	57.0	57.0	58.0	60.0	63.0	67.0	70.0	72.0	74.0	75.0	76.0	77.0	79.0	82.0	85.0	88.0	90.0	92.0	92.0	91.0	90.0	89.0	88.0	86.0	85.0	84.0	84.0	84.0	86.0	88.0	91.0	94.0	97.0	100.0	101.0	102.0	102.0	102.0	103.0	105.0	106.0	105.0	101.0	93.0	80.0	65.0	50.0	38.0	34.0	39.0	50.0	63.0	74.0	81.0	82.0	79.0	74.0	72.0	72.0	76.0	84.0	96.0	109.0	122.0	134.0	144.0	151.0	154.0	154.0	151.0	145.0	137.0	127.0	117.0	106.0	97.0	89.0	82.0	76.0	73.0	71.0	71.0	72.0	76.0	80.0	85.0	91.0	96.0	100.0	103.0	106.0	109.0	112.0	115.0	117.0	117.0	115.0	113.0	110.0	109.0	108.0	109.0	111.0	114.0	116.0	117.0	118.0	118.0	117.0	116.0	115.0	113.0	111.0	109.0	108.0	106.0	105.0	104.0	104.0	103.0	103.0	103.0	103.0	104.0	105.0	108.0	113.0	119.0	126.0	133.0	141.0	147.0	152.0	156.0	158.0	160.0	161.0	162.0	162.0	160.0	156.0	152.0	146.0	141.0	137.0	135.0	136.0	139.0	144.0	149.0	154.0	156.0	157.0	155.0	153.0	149.0	146.0	142.0	139.0	137.0	136.0	135.0	133.0	131.0	128.0	125.0	120.0	116.0	111.0	106.0	101.0	97.0	93.0	91.0	91.0	92.0	93.0	96.0	98.0	101.0	103.0	105.0	108.0	110.0	112.0	114.0	114.0	113.0	111.0	107.0	104.0	103.0	103.0	106.0	109.0	112.0	114.0	114.0	114.0	112.0	111.0	109.0	106.0	102.0	99.0	95.0	92.0	89.0	87.0	86.0	86.0	86.0	86.0	87.0	87.0	89.0	90.0	91.0	92.0	92.0	92.0	92.0	91.0	91.0	91.0	90.0	90.0	88.0	85.0	81.0	77.0	74.0	71.0	71.0	72.0	75.0	79.0	86.0	94.0	103.0	112.0	119.0	123.0	124.0	123.0	119.0	115.0	111.0	107.0	104.0	100.0	98.0	95.0	93.0	92.0	92.0	92.0	92.0	92.0	94.0	95.0	97.0	98.0	97.0	95.0	91.0	85.0	78.0	72.0	68.0	65.0	63.0	63.0	63.0	64.0	66.0	68.0	71.0	75.0	80.0	85.0	91.0	97.0	103.0	109.0	113.0	116.0	116.0	114.0	111.0	106.0	102.0	98.0	96.0	94.0	94.0	93.0	93.0	93.0	94.0	95.0	98.0	102.0	107.0	110.0	112.0	112.0	111.0	109.0	107.0	104.0	101.0	96.0	90.0	85.0	80.0	76.0	75.0	76.0	78.0	82.0	87.0	93.0	98.0	102.0	105.0	107.0	108.0	109.0	110.0	111.0	112.0	112.0	112.0	111.0	108.0	106.0	103.0	100.0	97.0	95.0	93.0	90.0	88.0	87.0	87.0	88.0	89.0	91.0	93.0	96.0	97.0	99.0	99.0	98.0	97.0	96.0	95.0	94.0	94.0	92.0	90.0	87.0	85.0	84.0	84.0	86.0	88.0	91.0	93.0	96.0	98.0	101.0	103.0	106.0	108.0	109.0	110.0	109.0	107.0	105.0	102.0	99.0	97.0	95.0	93.0	91.0	88.0	86.0	84.0	84.0	85.0	87.0	88.0	87.0	86.0	84.0	83.0	82.0	81.0	79.0	75.0	69.0	62.0	55.0	49.0	46.0	45.0	46.0	48.0	53.0	60.0	68.0	77.0	87.0	98.0	108.0	116.0	123.0	127.0	129.0	129.0	128.0	126.0	122.0	119.0	115.0	112.0	109.0	107.0	104.0	102.0	101.0	101.0	102.0	104.0	107.0	110.0	112.0	113.0	113.0	112.0	110.0	106.0	102.0	97.0	93.0	88.0	85.0	83.0	83.0	84.0	87.0	91.0	97.0	104.0	112.0	120.0	127.0	131.0	135.0	138.0	139.0	138.0	137.0	135.0	132.0	128.0	124.0	118.0	112.0	106.0	101.0	96.0	94.0	92.0	91.0	91.0	90.0	89.0	87.0	84.0	80.0	76.0	71.0	66.0	61.0	55.0	49.0	43.0	36.0	30.0	24.0	20.0	18.0	20.0	24.0	30.0	38.0	47.0	56.0	65.0	73.0	81.0	87.0	92.0	95.0	97.0	97.0	98.0	97.0	97.0	96.0	94.0	91.0	89.0	87.0	87.0	88.0	91.0	95.0	101.0	107.0	114.0	121.0	126.0	128.0	129.0	128.0	127.0	125.0	122.0	120.0	117.0	115.0	112.0	111.0	111.0	111.0	113.0	116.0	120.0	125.0	129.0	136.0	142.0	147.0	151.0	153.0	153.0	152.0	150.0	147.0	145.0	142.0	140.0	137.0	134.0	129.0	125.0	119.0	113.0	108.0	104.0	101.0	99.0	97.0	95.0	92.0	89.0	84.0	79.0	74.0	70.0	67.0	64.0	62.0	59.0	57.0	56.0	56.0	58.0	60.0	63.0	66.0	68.0	69.0	70.0	70.0	70.0	70.0	71.0	74.0	77.0	80.0	84.0	89.0	93.0	98.0	102.0	105.0	107.0	108.0	109.0	112.0	115.0	119.0	123.0	126.0	127.0	128.0	128.0	129.0	128.0	127.0	126.0	124.0	122.0	122.0	122.0	122.0	122.0	121.0	119.0	118.0	118.0	120.0	121.0	121.0	119.0	116.0	111.0	108.0	107.0	108.0	111.0	115.0	119.0	122.0	123.0	124.0	124.0	123.0	121.0	117.0	111.0	103.0	94.0	84.0	74.0	64.0	54.0	44.0	32.0	20.0	8.0	0.0	0.0	0.0	9.0	20.0	28.0	30.0	27.0	20.0	12.0	7.0	6.0	11.0	22.0	38.0	55.0	72.0	87.0	98.0	105.0	107.0	106.0	101.0	96.0	90.0	86.0	84.0	85.0	86.0	90.0	95.0	101.0	107.0	114.0	121.0	127.0	133.0	138.0	143.0	147.0	151.0	154.0	156.0	156.0	155.0	153.0	152.0	152.0	152.0	152.0	152.0	149.0	145.0	138.0	132.0	127.0	123.0	120.0	120.0	120.0	120.0	120.0	120.0	118.0	115.0	111.0	107.0	104.0	102.0	101.0	101.0	101.0	100.0	98.0	96.0	93.0	89.0	86.0	84.0	82.0	81.0	80.0	80.0	79.0	79.0	78.0	78.0	78.0	78.0	79.0	80.0	81.0	83.0	87.0	93.0	100.0	106.0	111.0	112.0	110.0	107.0	102.0	98.0	94.0	91.0	88.0	88.0	88.0	90.0	93.0	96.0	99.0	102.0	104.0	107.0	109.0	111.0	113.0	114.0	114.0	114.0	114.0	114.0	115.0	117.0	120.0	123.0	125.0	126.0	126.0	125.0	122.0	118.0	114.0	111.0	107.0	103.0	99.0	94.0	88.0	82.0	77.0	74.0	71.0	69.0	67.0	65.0	63.0	62.0	62.0	63.0	66.0	69.0	74.0	79.0	84.0	89.0	94.0	98.0	102.0	106.0	109.0	113.0	116.0	119.0	122.0	124.0	125.0	124.0	122.0	118.0	115.0	111.0	108.0	105.0	103.0	102.0	102.0	102.0	102.0	103.0	105.0	108.0	111.0	115.0	117.0	117.0	114.0	109.0	102.0	95.0	89.0	86.0	83.0	82.0	82.0	82.0	83.0	85.0	88.0	93.0	98.0	103.0	108.0	112.0	114.0	115.0	114.0	112.0	110.0	107.0	104.0	102.0	100.0	98.0	96.0	95.0	95.0	95.0	97.0	98.0	100.0	102.0	105.0	107.0	109.0	112.0	114.0	116.0	116.0	116.0	114.0	111.0	108.0	104.0	101.0	98.0	95.0	94.0	93.0	93.0	93.0	95.0	96.0	97.0	99.0	99.0	100.0	102.0	103.0	106.0	108.0	111.0	114.0	116.0	117.0	117.0	115.0	112.0	106.0	99.0	91.0	83.0	75.0	69.0	64.0	61.0	58.0	55.0	52.0	50.0	49.0	50.0	52.0	56.0	61.0	67.0	73.0	77.0	80.0	81.0	81.0	83.0	86.0	90.0	96.0	103.0	109.0	113.0	115.0	115.0	112.0	107.0	102.0	96.0	93.0	93.0	95.0	98.0	101.0	102.0	101.0	100.0	99.0	98.0	98.0	97.0	97.0	97.0	98.0	99.0	100.0	100.0	99.0	96.0	90.0	83.0	75.0	65.0	53.0	40.0	24.0	7.0	0.0	0.0	0.0	0.0	0.0	0.0	0.0	0.0	4.0	19.0	32.0	43.0	53.0	60.0	68.0	75.0	82.0	90.0	98.0	107.0	115.0	124.0	132.0	140.0	148.0	153.0	157.0	159.0	159.0	158.0	156.0	152.0	147.0	140.0	130.0	120.0	109.0	99.0	92.0	89.0	89.0	92.0	95.0	97.0	98.0	97.0	95.0	94.0	92.0	91.0	91.0	91.0	91.0	91.0	91.0	92.0	93.0	94.0	96.0	99.0	101.0	104.0	106.0	107.0	109.0	110.0	112.0	114.0	117.0	121.0	125.0	128.0	133.0	138.0	143.0	148.0	153.0	158.0	163.0	169.0	176.0	185.0	197.0	211.0	227.0	243.0	254.0	254.0	254.0	254.0	254.0	245.0	236.0	228.0	220.0	213.0	206.0	197.0	187.0	175.0	164.0	154.0	145.0	137.0	130.0	124.0	118.0	111.0	105.0	99.0	93.0	86.0	78.0	69.0	60.0	52.0	47.0	45.0	45.0	46.0	45.0	44.0	41.0	38.0	37.0	36.0	36.0	37.0	36.0	35.0	34.0	34.0	36.0	43.0	52.0	63.0	75.0	84.0	92.0	97.0	98.0	95.0	89.0	80.0	72.0	64.0	60.0	59.0	61.0	64.0	69.0	75.0	83.0	91.0	101.0	110.0	118.0	125.0	131.0	136.0	139.0	141.0	141.0	139.0	137.0	134.0	132.0	131.0	131.0	131.0	131.0	132.0	135.0	137.0	139.0	140.0	139.0	136.0	132.0	128.0	125.0	119.0	114.0	108.0	103.0	99.0	97.0	95.0	92.0	88.0	80.0	70.0	60.0	51.0	45.0	43.0	45.0	49.0	55.0	62.0	70.0	76.0	82.0	86.0	88.0	89.0	89.0	89.0	89.0	88.0	88.0	87.0	87.0	88.0	88.0	90.0	91.0	94.0	96.0	98.0	100.0	100.0	101.0	103.0	105.0	108.0	112.0	117.0	120.0	123.0	124.0	124.0	123.0	121.0	118.0	115.0	111.0	108.0	104.0	101.0	99.0	98.0	100.0	102.0	106.0	111.0	115.0	118.0	121.0	122.0	124.0	125.0	126.0	127.0	127.0	126.0	125.0	124.0	124.0	123.0	122.0	121.0	120.0	120.0	120.0	120.0	119.0	117.0	114.0	110.0	104.0	99.0	93.0	86.0	79.0	73.0	69.0	67.0	67.0	68.0	70.0	71.0	70.0	68.0	68.0	69.0	72.0	77.0	82.0	87.0	91.0	92.0	93.0	92.0	91.0	90.0	89.0	90.0	90.0	92.0	95.0	98.0	102.0	106.0	109.0	111.0	113.0	113.0	114.0	114.0	113.0	111.0	108.0	105.0	103.0	101.0	102.0	104.0	108.0	112.0	116.0	119.0	122.0	123.0	123.0	122.0	120.0	117.0	113.0	110.0	107.0	105.0	104.0	105.0	107.0	109.0	112.0	115.0	118.0	121.0	123.0	123.0	121.0	118.0	114.0	109.0	103.0	97.0	91.0	87.0	84.0	83.0	86.0	89.0	94.0	98.0	102.0	105.0	107.0	107.0	107.0	105.0	102.0	98.0	93.0	88.0	84.0	80.0	75.0	70.0	66.0	61.0	58.0	56.0	55.0	56.0	59.0	62.0	67.0	73.0	78.0	83.0	88.0	91.0	94.0	95.0	96.0	96.0	95.0	94.0	91.0	88.0	85.0	82.0	80.0	78.0	78.0	79.0	81.0	84.0	87.0	89.0	90.0	91.0	93.0	96.0	100.0	105.0	111.0	117.0	121.0	123.0	123.0	120.0	115.0	109.0	103.0	98.0	93.0	91.0	89.0	89.0	89.0	89.0	89.0	89.0	89.0	89.0	89.0	89.0	89.0	89.0	90.0	92.0	94.0	96.0	96.0	96.0	95.0	95.0	95.0	97.0	100.0	104.0	108.0	112.0	114.0	116.0	116.0	116.0	115.0	115.0	116.0	120.0	125.0	131.0	137.0	141.0	141.0	139.0	134.0	128.0	122.0	115.0	108.0	102.0	96.0	91.0	89.0	87.0	87.0	88.0	89.0	91.0	95.0	100.0	104.0	108.0	111.0	113.0	113.0	112.0	110.0	107.0	104.0	100.0	96.0	92.0	89.0	86.0	85.0	85.0	86.0	88.0	91.0	93.0	93.0	91.0	90.0	89.0	90.0	91.0	93.0	93.0	91.0	86.0	80.0	73.0	65.0	58.0	52.0	48.0	47.0	47.0	50.0	55.0	62.0	69.0	76.0	84.0	90.0	94.0	96.0	97.0	96.0	95.0	95.0	97.0	103.0	110.0	118.0	126.0	132.0	136.0	139.0	140.0	140.0	140.0	140.0	142.0	144.0	147.0	151.0	154.0	156.0	156.0	154.0	150.0	147.0	143.0	140.0	137.0	132.0	125.0	115.0	105.0	95.0	87.0	82.0	80.0	79.0	79.0	80.0	80.0	78.0	76.0	72.0	68.0	65.0	63.0	63.0	65.0	67.0	72.0	77.0	82.0	88.0	92.0	96.0	99.0	102.0	103.0	104.0	105.0	105.0	104.0	104.0	104.0	104.0	105.0	104.0	101.0	96.0	89.0	81.0	74.0	67.0	63.0	61.0	62.0	64.0	69.0	74.0	81.0	87.0	91.0	93.0	94.0	93.0	91.0	90.0	89.0	89.0	89.0	89.0	89.0	89.0	89.0	88.0	88.0	87.0	87.0	88.0	90.0	94.0	100.0	107.0	115.0	122.0	128.0	133.0	137.0	142.0	149.0	156.0	163.0	171.0	176.0	180.0	180.0	178.0	174.0	168.0	161.0	155.0	149.0	145.0	141.0	137.0	133.0	127.0	120.0	110.0	99.0	88.0	79.0	73.0	69.0	67.0	65.0	63.0	61.0	58.0	57.0	56.0	57.0	59.0	61.0	63.0	66.0	68.0	71.0	75.0	79.0	83.0	88.0	94.0	102.0	112.0	122.0	130.0	137.0	141.0	140.0	134.0	124.0	110.0	93.0	74.0	55.0	35.0	17.0	1.0	0.0	0.0	0.0	0.0	0.0	0.0	0.0	0.0	0.0	0.0	0.0	1.0	7.0	14.0	22.0	30.0	40.0	52.0	64.0	76.0	85.0	91.0	95.0	96.0	97.0	99.0	104.0	111.0	120.0	127.0	130.0	132.0	131.0	130.0	130.0	132.0	137.0	142.0	146.0	149.0	149.0	147.0	144.0	140.0	137.0	135.0	133.0	132.0	131.0	130.0	130.0	130.0	130.0	128.0	124.0	116.0	106.0	95.0	88.0	87.0	90.0	95.0	98.0	96.0	90.0	81.0	74.0	70.0	71.0	75.0	82.0	88.0	94.0	99.0	103.0	105.0	107.0	108.0	109.0	111.0	116.0	122.0	127.0	132.0	134.0	135.0	134.0	132.0	130.0	127.0	123.0	116.0	106.0	94.0	82.0	71.0	65.0	64.0	67.0	75.0	84.0	92.0	98.0	100.0	98.0	94.0	89.0	85.0	82.0	80.0	77.0	73.0	68.0	63.0	60.0	58.0	57.0	59.0	62.0	67.0	75.0	86.0	102.0	119.0	134.0	146.0	154.0	157.0	157.0	155.0	151.0	146.0	139.0	131.0	123.0	114.0	107.0	102.0	97.0	93.0	91.0	90.0	91.0	94.0	96.0	97.0	95.0	90.0	82.0	73.0	66.0	62.0	62.0	63.0	66.0	68.0	68.0	70.0	72.0	78.0	85.0	93.0	102.0	110.0	116.0	120.0	122.0	123.0	124.0	123.0	123.0	122.0	122.0	122.0	123.0	124.0	126.0	127.0	128.0	129.0	129.0	129.0	128.0	127.0	125.0	123.0	122.0	122.0	124.0	127.0	131.0	136.0	140.0	141.0	141.0	140.0	139.0	138.0	137.0	138.0	138.0	137.0	135.0	132.0	128.0	124.0	119.0	114.0	109.0	105.0	102.0	103.0	106.0	111.0	118.0	125.0	130.0	135.0	138.0	139.0	137.0	134.0	128.0	123.0	117.0	112.0	109.0	107.0	106.0	105.0	104.0	103.0	102.0	101.0	100.0	98.0	95.0	92.0	87.0	81.0	74.0	69.0	64.0	61.0	57.0	53.0	50.0	47.0	45.0	47.0	51.0	58.0	65.0	72.0	77.0	82.0	85.0	88.0	90.0	91.0	93.0	94.0	95.0	95.0	95.0	96.0	96.0	98.0	99.0	101.0	104.0	106.0	107.0	108.0	109.0	108.0	107.0	106.0	105.0	104.0	105.0	108.0	113.0	118.0	123.0	127.0	127.0	127.0	123.0	119.0	114.0	110.0	107.0	105.0	105.0	105.0	106.0	106.0	107.0	109.0	110.0	113.0	115.0	118.0	120.0	120.0	120.0	119.0	117.0	116.0	115.0	114.0	113.0	113.0	112.0	111.0	109.0	108.0	107.0	106.0	107.0	107.0	108.0	107.0	107.0	106.0	105.0	104.0	102.0	99.0	94.0	89.0	83.0	77.0	72.0	67.0	63.0	59.0	56.0	53.0	50.0	49.0	49.0	51.0	55.0	60.0	65.0	70.0	74.0	78.0	82.0	85.0	89.0	93.0	96.0	100.0	102.0	102.0	103.0	104.0	107.0	111.0	116.0	121.0	125.0	126.0	127.0	127.0	126.0	126.0	127.0	127.0	129.0	131.0	133.0	134.0	134.0	132.0	129.0	124.0	118.0	113.0	108.0	105.0	103.0	101.0	101.0	100.0	100.0	99.0	98.0	96.0	94.0	93.0	92.0	91.0	91.0	91.0	90.0	90.0	90.0	90.0	92.0	94.0	97.0	101.0	105.0	108.0	110.0	112.0	113.0	113.0	112.0	111.0	110.0	109.0	109.0	109.0	110.0	111.0	112.0	112.0	111.0	109.0	107.0	104.0	100.0	96.0	91.0	87.0	84.0	80.0	78.0	76.0	74.0	74.0	74.0	75.0	76.0	78.0	80.0	82.0	84.0	85.0	87.0	88.0	90.0	92.0	94.0	97.0	100.0	104.0	108.0	112.0	115.0	117.0	117.0	117.0	116.0	114.0	114.0	113.0	114.0	115.0	117.0	119.0	121.0	121.0	119.0	115.0	110.0	104.0	99.0	95.0	93.0	92.0	92.0	92.0	92.0	91.0	92.0	92.0	93.0	94.0	95.0	96.0	96.0	96.0	95.0	93.0	92.0	92.0	91.0	91.0	91.0	91.0	93.0	96.0	99.0	104.0	108.0	112.0	116.0	118.0	119.0	119.0	117.0	116.0	115.0	114.0	115.0	114.0	112.0	108.0	103.0	97.0	91.0	85.0	80.0	75.0	72.0	70.0	69.0	69.0	70.0	72.0	74.0	77.0	79.0	82.0	84.0	86.0	87.0	88.0	89.0	89.0	88.0	87.0	86.0	85.0	85.0	85.0	86.0	89.0	93.0	98.0	103.0	108.0	112.0	115.0	117.0	118.0	118.0	118.0	118.0	120.0	122.0	125.0	127.0	127.0	125.0	121.0	115.0	108.0	102.0	97.0	94.0	93.0	93.0	95.0	96.0	98.0	99.0	101.0	102.0	102.0	103.0	103.0	104.0	103.0	103.0	102.0	101.0	100.0	99.0	98.0	98.0	98.0	98.0	99.0	101.0	103.0	106.0	110.0	113.0	116.0	118.0	118.0	118.0	117.0	115.0	114.0	114.0	113.0	111.0	107.0	102.0	96.0	90.0	86.0	83.0	81.0	79.0	76.0	74.0	72.0	71.0	70.0	71.0	72.0	74.0	76.0	79.0	82.0	84.0	85.0	87.0	87.0	89.0	90.0	91.0	93.0	94.0	96.0	99.0	103.0	109.0	118.0	127.0	136.0	145.0	154.0	160.0	163.0	164.0	161.0	155.0	149.0	143.0	137.0	133.0	129.0	126.0	121.0	117.0	112.0	109.0	108.0	109.0	112.0	115.0	119.0	122.0	123.0	122.0	119.0	115.0	110.0	104.0	99.0	95.0	92.0	90.0	89.0	89.0	90.0	91.0	93.0	96.0	98.0	101.0	104.0	106.0	109.0	110.0	111.0	111.0	110.0	108.0	105.0	102.0	99.0	97.0	95.0	95.0	95.0	95.0	95.0	93.0	91.0	87.0	82.0	77.0	71.0	65.0	61.0	58.0	56.0	54.0	53.0	52.0	53.0	55.0	59.0	63.0	68.0	72.0	76.0	79.0	81.0	83.0	84.0	86.0	87.0	89.0	91.0	94.0	97.0	100.0	104.0	107.0	110.0	112.0	114.0	115.0	115.0	115.0	115.0	116.0	118.0	119.0	121.0	122.0	121.0	118.0	112.0	116.0	120.0	123.0	125.0	126.0	126.0	126.0	126.0	125.0	123.0	119.0	113.0	106.0	100.0	95.0	91.0	89.0	86.0	83.0	78.0	74.0	69.0	64.0	61.0	59.0	58.0	59.0	61.0	65.0	70.0	77.0	82.0	87.0	90.0	91.0	92.0	91.0	90.0	89.0	88.0	88.0	89.0	90.0	92.0	93.0	95.0	98.0	102.0	106.0	110.0	114.0	117.0	120.0	123.0	127.0	134.0	142.0	149.0	152.0	152.0	147.0	138.0	127.0	114.0	100.0	84.0	70.0	58.0	50.0	45.0	43.0	44.0	45.0	46.0	47.0	49.0	52.0	57.0	62.0	67.0	73.0	78.0	84.0	91.0	97.0	104.0	110.0	115.0	119.0	122.0	125.0	127.0	131.0	135.0	139.0	144.0	148.0	153.0	156.0	158.0	157.0	156.0	153.0	149.0	146.0	144.0	143.0	142.0	142.0	142.0	141.0	140.0	140.0	139.0	138.0	138.0	137.0	137.0	137.0	136.0	137.0	138.0	140.0	144.0	148.0	152.0	156.0	159.0	160.0	161.0	162.0	162.0	163.0	163.0	162.0	159.0	155.0	152.0	150.0	151.0	155.0	162.0	168.0	173.0	175.0	175.0	173.0	172.0	174.0	180.0	189.0	195.0	196.0	188.0	172.0	150.0	127.0	107.0	91.0	80.0	73.0	70.0	67.0	64.0	61.0	58.0	55.0	53.0	51.0	50.0	50.0	50.0	51.0	52.0	52.0	52.0	53.0	53.0	54.0	56.0	58.0	60.0	61.0	63.0	64.0	65.0	66.0	71.0	82.0	102.0	131.0	168.0	205.0	235.0	253.0	254.0	243.0	218.0	187.0	153.0	121.0	90.0	63.0	42.0	25.0	13.0	4.0	0.0	0.0	0.0	3.0	8.0	15.0	21.0	28.0	33.0	36.0	34.0	31.0	26.0	22.0	21.0	22.0	25.0	28.0	30.0	32.0	33.0	34.0	35.0	37.0	38.0	38.0	39.0	40.0	41.0	43.0	47.0	53.0	61.0	69.0	78.0	86.0	93.0	97.0	100.0	100.0	98.0	96.0	93.0	89.0	86.0	82.0	79.0	77.0	77.0	78.0	79.0	80.0	80.0	79.0	75.0	71.0	68.0	65.0	63.0	62.0	62.0	62.0	62.0	62.0	63.0	65.0	68.0	71.0	75.0	79.0	82.0	83.0	85.0	85.0	86.0	89.0	93.0	100.0	110.0	122.0	135.0	149.0	161.0	169.0	173.0	173.0	171.0	166.0	159.0	152.0	143.0	134.0	124.0	113.0	101.0	89.0	79.0	70.0	63.0	58.0	55.0	54.0	56.0	59.0	65.0	72.0	79.0	87.0	94.0	100.0	105.0	108.0	111.0	112.0	113.0	112.0	111.0	110.0	108.0	105.0	103.0	100.0	96.0	93.0	90.0	88.0	87.0	88.0	90.0	94.0	98.0	104.0	110.0	115.0	119.0	120.0	117.0	110.0	101.0	89.0	76.0	65.0	56.0	50.0	47.0	47.0	50.0	53.0	58.0	62.0	66.0	70.0	74.0	77.0	79.0	80.0	81.0	81.0	81.0	82.0	83.0	84.0	86.0	89.0	92.0	96.0	101.0	105.0	109.0	112.0	114.0	115.0	115.0	115.0	114.0	113.0	112.0	111.0	111.0	112.0	113.0	114.0	114.0	112.0	110.0	108.0	104.0	100.0	95.0	89.0	82.0	75.0	69.0	64.0	59.0	57.0	55.0	56.0	57.0	60.0	64.0	69.0	75.0	82.0	89.0	96.0	101.0	106.0	109.0	111.0	112.0	112.0	112.0	111.0	110.0	108.0	106.0	105.0	104.0	104.0	104.0	107.0	111.0	115.0	120.0	124.0	126.0	127.0	127.0	127.0	127.0	126.0	124.0	122.0	120.0	116.0	111.0	106.0	100.0	94.0	89.0	86.0	84.0	83.0	83.0	83.0	82.0	82.0	83.0	84.0	86.0	89.0	93.0	96.0	99.0	101.0	103.0	104.0	105.0	107.0	108.0	110.0	111.0	110.0	110.0	111.0	112.0	116.0	120.0	125.0	127.0	129.0	128.0	126.0	120.0	113.0	104.0	96.0	88.0	81.0	76.0	73.0	71.0	70.0	70.0	70.0	69.0	68.0	66.0	65.0	63.0	63.0	63.0	66.0	70.0	75.0	81.0	87.0	93.0	100.0	105.0	110.0	114.0	116.0	117.0	118.0	120.0	123.0	129.0	137.0	146.0	154.0	160.0	163.0	162.0	158.0	154.0	150.0	146.0	143.0	138.0	134.0	129.0	126.0	123.0	122.0	121.0	118.0	113.0	108.0	102.0	97.0	93.0	90.0	90.0	90.0	91.0	92.0	93.0	94.0	95.0	97.0	99.0	100.0	102.0	102.0	101.0	100.0	98.0	96.0	94.0	93.0	92.0	93.0	95.0	97.0	101.0	105.0	110.0	114.0	118.0	121.0	124.0	126.0	126.0	125.0	123.0	119.0	114.0	109.0	104.0	98.0	93.0	88.0	83.0	80.0	79.0	80.0	82.0	86.0	90.0	95.0	100.0	104.0	107.0	109.0	110.0	110.0	110.0	110.0	109.0	108.0	107.0	105.0	103.0	101.0	100.0	99.0	100.0	102.0	104.0	107.0	110.0	114.0	117.0	120.0	123.0	124.0	124.0	123.0	121.0	118.0	115.0	112.0	109.0	108.0	107.0	107.0	107.0	106.0	104.0	101.0	98.0	94.0	92.0	91.0	91.0	92.0	93.0	94.0	95.0	96.0	97.0	99.0	101.0	105.0	109.0	112.0	115.0	116.0	116.0	115.0	114.0	113.0	113.0	114.0	116.0	119.0	122.0	124.0	123.0	120.0	115.0	109.0	103.0	97.0	92.0	88.0	83.0	79.0	75.0	72.0	70.0	69.0	69.0	69.0	70.0	70.0	69.0	68.0	66.0	64.0	63.0	62.0	62.0	63.0	66.0	69.0	72.0	76.0	81.0	86.0	91.0	96.0	99.0	102.0	103.0	103.0	102.0	101.0	100.0	100.0	101.0	103.0	107.0	110.0	114.0	117.0	118.0	119.0	118.0	117.0	115.0	112.0	110.0	107.0	105.0	103.0	101.0	98.0	95.0	91.0	87.0	83.0	80.0	79.0	78.0	78.0	79.0	80.0	82.0	84.0	86.0	87.0	88.0	88.0	88.0	88.0	88.0	88.0	89.0	90.0	90.0	90.0	89.0	88.0	86.0	85.0	85.0	84.0	85.0	86.0	89.0	92.0	97.0	102.0	108.0	112.0	115.0	115.0	112.0	107.0	100.0	93.0	86.0	80.0	74.0	70.0	66.0	64.0	63.0	64.0	67.0	70.0	75.0	81.0	86.0	91.0	94.0	97.0	98.0	100.0	101.0	102.0	103.0	103.0	102.0	101.0	99.0	98.0	97.0	97.0	99.0	101.0	103.0	106.0	110.0	117.0	126.0	135.0	145.0	154.0	159.0	159.0	157.0	151.0	143.0	135.0	127.0	119.0	111.0	104.0	97.0	91.0	87.0	84.0	84.0	86.0	90.0	96.0	103.0	110.0	116.0	120.0	122.0	123.0	123.0	123.0	123.0	124.0	123.0	123.0	123.0	123.0	122.0	121.0	119.0	116.0	113.0	110.0	107.0	105.0	103.0	102.0	101.0	102.0	103.0	106.0	108.0	110.0	111.0	110.0	107.0	103.0	98.0	94.0	90.0	85.0	81.0	78.0	74.0	72.0	70.0	71.0	74.0	78.0	83.0	89.0	94.0	99.0	103.0	106.0	108.0	110.0	111.0	112.0	113.0	113.0	112.0	111.0	108.0	106.0	103.0	101.0	98.0	96.0	95.0	95.0	96.0	97.0	99.0	102.0	104.0	107.0	109.0	113.0	116.0	120.0	122.0	123.0	121.0	116.0	111.0	104.0	98.0	95.0	93.0	95.0	98.0	102.0	105.0	106.0	107.0	106.0	105.0	104.0	103.0	101.0	98.0	95.0	93.0	90.0	88.0	87.0	86.0	85.0	84.0	83.0	82.0	82.0	83.0	85.0	87.0	90.0	93.0	95.0	97.0	98.0	98.0	98.0	97.0	97.0	96.0	95.0	93.0	90.0	87.0	83.0	80.0	77.0	76.0	75.0	76.0	78.0	81.0	85.0	90.0	96.0	102.0	109.0	114.0	119.0	122.0	125.0	127.0	128.0	131.0	133.0	133.0	133.0	131.0	128.0	127.0	127.0	127.0	127.0	127.0	127.0	127.0	127.0	128.0	131.0	134.0	135.0	134.0	131.0	127.0	124.0	121.0	117.0	113.0	106.0	97.0	86.0	75.0	65.0	58.0	54.0	53.0	55.0	58.0	61.0	64.0	66.0	68.0	69.0	69.0	69.0	69.0	69.0	70.0	71.0	72.0	72.0	73.0	73.0	75.0	79.0	84.0	90.0	96.0	102.0	106.0	108.0	109.0	110.0	108.0	106.0	102.0	98.0	93.0	89.0	85.0	82.0	81.0	83.0	86.0	90.0	94.0	96.0	97.0	96.0	94.0	91.0	89.0	89.0	90.0	94.0	99.0	105.0	111.0	117.0	122.0	127.0	131.0	135.0	139.0	143.0	145.0	146.0	145.0	143.0	140.0	136.0	131.0	127.0	123.0	120.0	119.0	121.0	126.0	133.0	142.0	150.0	155.0	157.0	154.0	150.0	145.0	140.0	135.0	130.0	126.0	121.0	116.0	112.0	109.0	107.0	106.0	106.0	105.0	105.0	105.0	106.0	109.0	113.0	116.0	119.0	121.0	121.0	119.0	117.0	115.0	112.0	110.0	108.0	108.0	108.0	109.0	109.0	109.0	106.0	103.0	99.0	96.0	94.0	92.0	90.0	88.0	84.0	78.0	72.0	64.0	57.0	51.0	46.0	44.0	43.0	43.0	44.0	45.0	47.0	49.0	52.0	53.0	55.0	55.0	56.0	58.0	61.0	65.0	71.0	77.0	84.0	93.0	102.0	113.0	124.0	132.0	140.0	145.0	147.0	146.0	143.0	137.0	130.0	124.0	117.0	112.0	109.0	106.0	106.0	108.0	112.0	118.0	124.0	129.0	132.0	132.0	128.0	123.0	115.0	107.0	99.0	92.0	85.0	78.0	71.0	65.0	60.0	56.0	52.0	49.0	48.0	49.0	54.0	62.0	73.0	86.0	100.0	114.0	127.0	138.0	149.0	157.0	163.0	164.0	163.0	160.0	156.0	152.0	150.0	153.0	164.0	186.0	216.0	248.0	254.0	254.0	254.0	254.0	254.0	224.0	181.0	134.0	88.0	44.0	8.0	0.0	0.0	0.0	0.0	0.0	0.0	0.0	0.0	0.0	0.0	0.0	11.0	20.0	27.0	31.0	31.0	28.0	25.0	24.0	26.0	33.0	44.0	56.0	67.0	75.0	79.0	80.0	79.0	77.0	75.0	73.0	71.0	68.0	64.0	58.0	51.0	46.0	43.0	43.0	46.0	50.0	54.0	56.0	57.0	58.0	58.0	58.0	58.0	58.0	59.0	60.0	61.0	61.0	62.0	63.0	66.0	69.0	74.0	79.0	85.0	90.0	95.0	100.0	105.0	111.0	118.0	124.0	128.0	130.0	131.0	130.0	130.0	131.0	132.0	133.0	134.0	135.0	138.0	144.0	156.0	172.0	189.0	203.0	211.0	211.0	206.0	197.0	185.0	170.0	152.0	132.0	113.0	94.0	77.0	63.0	52.0	43.0	35.0	27.0	20.0	13.0	8.0	6.0	7.0	11.0	18.0	27.0	36.0	46.0	54.0	62.0	68.0	74.0	78.0	83.0	87.0	91.0	94.0	97.0	99.0	100.0	99.0	97.0	95.0	92.0	89.0	86.0	84.0	82.0	81.0	81.0	81.0	82.0	83.0	86.0	88.0	92.0	96.0	100.0	104.0	107.0	108.0	108.0	106.0	103.0	100.0	96.0	92.0	89.0	87.0	87.0	89.0	92.0	96.0	100.0	102.0	102.0	100.0	97.0	94.0	90.0	87.0	84.0	83.0	83.0	84.0	88.0	92.0	97.0	102.0	106.0	109.0	111.0	112.0	112.0	111.0	111.0	112.0	115.0	121.0	127.0	131.0	134.0	135.0	136.0	136.0	137.0	138.0	138.0	135.0	130.0	124.0	117.0	111.0	107.0	105.0	104.0	102.0	100.0	97.0	95.0	93.0	93.0	95.0	98.0	102.0	107.0	111.0	116.0	121.0	125.0	129.0	134.0	140.0	146.0	152.0	156.0	159.0	159.0	157.0	153.0	148.0	141.0	133.0	125.0	115.0	105.0	97.0	91.0	91.0	95.0	104.0	117.0	128.0	137.0	141.0	138.0	130.0	119.0	104.0	87.0	69.0	51.0	35.0	22.0	15.0	13.0	15.0	19.0	23.0	27.0	29.0	31.0	31.0	31.0	29.0	28.0	26.0	26.0	27.0	30.0	35.0	41.0	50.0	60.0	71.0	83.0	97.0	112.0	127.0	140.0	154.0	166.0	180.0	195.0	212.0	228.0	241.0	248.0	248.0	240.0	226.0	205.0	180.0	153.0	127.0	101.0	77.0	53.0	32.0	13.0	0.0	0.0	0.0	0.0	0.0	0.0	0.0	0.0	0.0	0.0	6.0	16.0	27.0	38.0	49.0	57.0	63.0	68.0	72.0	74.0	76.0	76.0	76.0	74.0	71.0	68.0	64.0	60.0	56.0	54.0	53.0	54.0	56.0	60.0	65.0	72.0	79.0	87.0	93.0	97.0	99.0	99.0	98.0	97.0	95.0	93.0	90.0	89.0	87.0	87.0	88.0	90.0	92.0	95.0	98.0	101.0	104.0	107.0	110.0	113.0	116.0	120.0	123.0	125.0	127.0	128.0	129.0	131.0	134.0	139.0	143.0	147.0	149.0	150.0	149.0	147.0	145.0	143.0	142.0	141.0	141.0	141.0	142.0	143.0	143.0	142.0	141.0	140.0	136.0	132.0	127.0	120.0	112.0	105.0	97.0	90.0	84.0	80.0	78.0	78.0	81.0	85.0	90.0	95.0	101.0	107.0	114.0	119.0	125.0	128.0	133.0	138.0	141.0	143.0	143.0	141.0	136.0	131.0	126.0	122.0	117.0	114.0	111.0	108.0	107.0	107.0	107.0	107.0	108.0	107.0	106.0	103.0	101.0	98.0	97.0	96.0	97.0	99.0	102.0	105.0	108.0	111.0	114.0	116.0	117.0	118.0	118.0	117.0	117.0	116.0	115.0	113.0	112.0	110.0	110.0	109.0	109.0	109.0	110.0	109.0	109.0	108.0	107.0	106.0	106.0	105.0	105.0	104.0	104.0	103.0	103.0	103.0	104.0	105.0	106.0	106.0	107.0	107.0	106.0	105.0	102.0	100.0	97.0	94.0	93.0	93.0	95.0	97.0	100.0	103.0	104.0	104.0	102.0	100.0	97.0	95.0	94.0	94.0	95.0	96.0	98.0	99.0	100.0	101.0	101.0	102.0	102.0	102.0	102.0	102.0	102.0	103.0	104.0	105.0	106.0	107.0	109.0	110.0	111.0	112.0	112.0	111.0	110.0	109.0	109.0	109.0	110.0	111.0	113.0	113.0	112.0	110.0	106.0	103.0	101.0	100.0	101.0	103.0	105.0	107.0	108.0	108.0	109.0	110.0	111.0	113.0	115.0	116.0	116.0	116.0	115.0	113.0	111.0	108.0	105.0	102.0	100.0	97.0	94.0	92.0	90.0	89.0	88.0	88.0	89.0	88.0	88.0	87.0	86.0	85.0	85.0	85.0	85.0	86.0	86.0	85.0	83.0	82.0	80.0	79.0	79.0	80.0	83.0	86.0	90.0	93.0	96.0	98.0	100.0	101.0	102.0	103.0	105.0	106.0	108.0	111.0	113.0	115.0	117.0	117.0	116.0	114.0	112.0	111.0	110.0	110.0	109.0	108.0	106.0	106.0	107.0	110.0	113.0	116.0	118.0	117.0	115.0	111.0	106.0	102.0	98.0	95.0	92.0	91.0	91.0	91.0	91.0	92.0	94.0	97.0	100.0	105.0	111.0	116.0	120.0	123.0	124.0	123.0	120.0	118.0	115.0	112.0	110.0	107.0	105.0	104.0	102.0	100.0	99.0	97.0	95.0	93.0	91.0	90.0	90.0	90.0	90.0	91.0	91.0	91.0	90.0	89.0	86.0	84.0	82.0	80.0	78.0	77.0	76.0	76.0	76.0	76.0	77.0	78.0	78.0	80.0	81.0	83.0	87.0	91.0	96.0	101.0	105.0	109.0	111.0	112.0	112.0	111.0	110.0	110.0	111.0	112.0	115.0	117.0	120.0	124.0	128.0	132.0	137.0	141.0	144.0	145.0	145.0	144.0	140.0	135.0	129.0	125.0	120.0	116.0	113.0	111.0	109.0	108.0	107.0	107.0	107.0	107.0	107.0	108.0	109.0	109.0	108.0	108.0	107.0	108.0	108.0	110.0	111.0	111.0	110.0	108.0	105.0	102.0	99.0	96.0	93.0	91.0	88.0	87.0	86.0	86.0	85.0	86.0	86.0	86.0	86.0	86.0	86.0	84.0	83.0	81.0	79.0	77.0	76.0	75.0	76.0	77.0	79.0	82.0	85.0	89.0	92.0	95.0	97.0	99.0	99.0	99.0	98.0	97.0	96.0	96.0	97.0	98.0	100.0	103.0	105.0	107.0	109.0	110.0	111.0	111.0	110.0	108.0	107.0	107.0	107.0	107.0	108.0	109.0	110.0	112.0	112.0	113.0	112.0	111.0	109.0	107.0	104.0	101.0	97.0	94.0	90.0	86.0	83.0	81.0	80.0	80.0	80.0	82.0	83.0	85.0	87.0	89.0	89.0	90.0	89.0	89.0	89.0	90.0	92.0	95.0	97.0	99.0	100.0	100.0	100.0	100.0	100.0	100.0	99.0	97.0	95.0	92.0	89.0	86.0	82.0	80.0	77.0	75.0	74.0	73.0	73.0	74.0	76.0	78.0	81.0	84.0	86.0	88.0	89.0	89.0	90.0	90.0	90.0	90.0	91.0	92.0	93.0	94.0	95.0	97.0	100.0	103.0	108.0	114.0	120.0	127.0	131.0	134.0	135.0	134.0	133.0	131.0	130.0	128.0	126.0	123.0	118.0	113.0	107.0	101.0	97.0	94.0	92.0	92.0	92.0	93.0	93.0	93.0	94.0	94.0	93.0	93.0	92.0	92.0	92.0	93.0	94.0	96.0	98.0	99.0	101.0	102.0	103.0	104.0	105.0	105.0	105.0	107.0	108.0	111.0	114.0	117.0	120.0	123.0	124.0	124.0	123.0	120.0	114.0	108.0	101.0	94.0	87.0	82.0	78.0	75.0	74.0	73.0	74.0	75.0	77.0	80.0	84.0	88.0	92.0	95.0	97.0	97.0	97.0	95.0	94.0	92.0	90.0	89.0	89.0	89.0	89.0	89.0	90.0	92.0	95.0	100.0	105.0	110.0	115.0	118.0	119.0	121.0	122.0	124.0	127.0	129.0	131.0	131.0	128.0	125.0	119.0	112.0	106.0	102.0	99.0	98.0	97.0	96.0	96.0	97.0	98.0	99.0	101.0	102.0	102.0	102.0	102.0	101.0	100.0	98.0	97.0	95.0	94.0	93.0	92.0	92.0	92.0	92.0	93.0	95.0	98.0	102.0	107.0	112.0	116.0	120.0	122.0	122.0	121.0	119.0	116.0	112.0	108.0	104.0	99.0	95.0	92.0	89.0	87.0	86.0	86.0	86.0	87.0	89.0	91.0	95.0	98.0	100.0	102.0	103.0	102.0	101.0	99.0	97.0	95.0	93.0	91.0	90.0	89.0	89.0	89.0	90.0	92.0	94.0	98.0	102.0	107.0	113.0	118.0	123.0	127.0	129.0	129.0	128.0	125.0	119.0	112.0	106.0	100.0	95.0	92.0	89.0	87.0	86.0	84.0	83.0	82.0	82.0	82.0	82.0	83.0	85.0	88.0	91.0	93.0	95.0	97.0	98.0	99.0	99.0	98.0	97.0	97.0	97.0	97.0	98.0	99.0	101.0	102.0	104.0	106.0	108.0	110.0	113.0	116.0	117.0	116.0	113.0	109.0	104.0	99.0	94.0	89.0	86.0	82.0	80.0	78.0	77.0	77.0	78.0	80.0	82.0	84.0	87.0	89.0	91.0	93.0	94.0	94.0	95.0	96.0	96.0	97.0	98.0	99.0	99.0	99.0	98.0	98.0	98.0	99.0	101.0	102.0	103.0	104.0	106.0	108.0	111.0	115.0	119.0	121.0	122.0	120.0	117.0	112.0	107.0	102.0	98.0	95.0	93.0	92.0	91.0	91.0	91.0	92.0	94.0	95.0	97.0	99.0	101.0	103.0	105.0	107.0	108.0	109.0	109.0	109.0	108.0	108.0	108.0	108.0	108.0	108.0	108.0	107.0	106.0	105.0	104.0	102.0	101.0	100.0	100.0	101.0	101.0	102.0	102.0	101.0	99.0	97.0	96.0	95.0	94.0	95.0	95.0	96.0	97.0	97.0	97.0	97.0	97.0	97.0	97.0	98.0	99.0	99.0	99.0	98.0	96.0	95.0	93.0	92.0	91.0	90.0	89.0	88.0	87.0	87.0	86.0	87.0	87.0	88.0	90.0	92.0	94.0	96.0	99.0	103.0	107.0	112.0	116.0	119.0	119.0	117.0	113.0	109.0	103.0	98.0	94.0	92.0	90.0	88.0	88.0	88.0	87.0	87.0	88.0	88.0	89.0	91.0	93.0	94.0	97.0	99.0	101.0	103.0	105.0	107.0	109.0	110.0	111.0	112.0	112.0	113.0	113.0	113.0	114.0	115.0	116.0	116.0	116.0	115.0	113.0	111.0	110.0	108.0	107.0	106.0	105.0	104.0	102.0	99.0	97.0	95.0	94.0	94.0	95.0	96.0	97.0	98.0	99.0	99.0	99.0	99.0	100.0	100.0	101.0	101.0	102.0	102.0	102.0	101.0	100.0	99.0	98.0	95.0	92.0	87.0	82.0	76.0	69.0	64.0	59.0	55.0	53.0	52.0	52.0	55.0	63.0	76.0	92.0	108.0	118.0	119.0	109.0	93.0	75.0	59.0	47.0	38.0	32.0	26.0	21.0	15.0	11.0	10.0	12.0	18.0	27.0	38.0	50.0	61.0	70.0	78.0	84.0	89.0	92.0	93.0	94.0	94.0	94.0	94.0	94.0	94.0	95.0	96.0	98.0	100.0	103.0	106.0	109.0	112.0	114.0	116.0	117.0	118.0	119.0	120.0	122.0	126.0	128.0	131.0	131.0	127.0	122.0	113.0	103.0	95.0	87.0	82.0	78.0	75.0	74.0	73.0	75.0	77.0	80.0	85.0	90.0	96.0	100.0	104.0	107.0	110.0	112.0	114.0	117.0	119.0	121.0	121.0	120.0	117.0	112.0	106.0	99.0	93.0	87.0	83.0	80.0	80.0	80.0	83.0	88.0	94.0	102.0	111.0	120.0	128.0	134.0	137.0	137.0	133.0	127.0	119.0	112.0	106.0	102.0	99.0	97.0	96.0	96.0	96.0	97.0	99.0	101.0	103.0	105.0	107.0	109.0	110.0	110.0	110.0	110.0	109.0	108.0	107.0	106.0	106.0	106.0	106.0	107.0	108.0	110.0	112.0	114.0	115.0	116.0	115.0	115.0	114.0	113.0	112.0	110.0	108.0	105.0	103.0	103.0	105.0	107.0	108.0	107.0	104.0	99.0	94.0	89.0	86.0	85.0	86.0	89.0	92.0	95.0	97.0	100.0	101.0	103.0	103.0	104.0	104.0	103.0	102.0	99.0	95.0	91.0	87.0	84.0	82.0	81.0	81.0	82.0	83.0	84.0	85.0	87.0	92.0	98.0	106.0	115.0	125.0	132.0	137.0	140.0	140.0	136.0	129.0	122.0	113.0	106.0	101.0	98.0	96.0	95.0	94.0	93.0	92.0	92.0	93.0	96.0	100.0	104.0	108.0	110.0	112.0	113.0	114.0	113.0	112.0	110.0	108.0	108.0	109.0	110.0	112.0	115.0	116.0	118.0	120.0	121.0	122.0	121.0	121.0	119.0	118.0	116.0	113.0	109.0	105.0	101.0	97.0	93.0	89.0	85.0	81.0	75.0	69.0	63.0	60.0	59.0	62.0	68.0	75.0	83.0	91.0	96.0	100.0	103.0	104.0	105.0	106.0	106.0	107.0	107.0	106.0	105.0	102.0	100.0	97.0	94.0	92.0	90.0	88.0	88.0	88.0	89.0	91.0	94.0	98.0	103.0	109.0	116.0	123.0	129.0	133.0	134.0	132.0	128.0	123.0	117.0	111.0	107.0	104.0	102.0	102.0	103.0	104.0	105.0	105.0	98.0	94.0	90.0	85.0	81.0	78.0	74.0	71.0	69.0	68.0	69.0	72.0	77.0	85.0	94.0	103.0	112.0	118.0	122.0	124.0	124.0	122.0	120.0	117.0	113.0	110.0	106.0	102.0	98.0	94.0	91.0	88.0	88.0	89.0	90.0	92.0	94.0	95.0	94.0	94.0	93.0	92.0	92.0	92.0	92.0	91.0	89.0	85.0	82.0	79.0	77.0	76.0	77.0	78.0	80.0	82.0	85.0	88.0	91.0	94.0	97.0	101.0	104.0	107.0	111.0	114.0	117.0	120.0	120.0	120.0	118.0	116.0	114.0	112.0	110.0	109.0	108.0	108.0	109.0	110.0	112.0	112.0	112.0	111.0	110.0	110.0	109.0	108.0	106.0	103.0	98.0	92.0	86.0	79.0	74.0	70.0	67.0	66.0	67.0	69.0	71.0	75.0	80.0	86.0	93.0	99.0	105.0	110.0	114.0	117.0	118.0	119.0	119.0	120.0	122.0	124.0	127.0	127.0	127.0	127.0	124.0	120.0	117.0	115.0	114.0	114.0	115.0	118.0	121.0	125.0	128.0	132.0	134.0	134.0	131.0	126.0	117.0	106.0	95.0	85.0	77.0	72.0	69.0	68.0	68.0	70.0	72.0	77.0	83.0	91.0	98.0	105.0	111.0	116.0	119.0	120.0	120.0	119.0	117.0	114.0	112.0	110.0	109.0	108.0	108.0	109.0	111.0	112.0	113.0	112.0	111.0	108.0	104.0	100.0	96.0	93.0	89.0	86.0	82.0	78.0	75.0	72.0	70.0	69.0	70.0	71.0	72.0	73.0	72.0	72.0	72.0	73.0	75.0	77.0	78.0	80.0	81.0	83.0	84.0	86.0	88.0	90.0	92.0	94.0	97.0	100.0	102.0	104.0	106.0	109.0	112.0	114.0	116.0	117.0	118.0	119.0	121.0	125.0	127.0	130.0	131.0	128.0	124.0	116.0	107.0	98.0	89.0	83.0	78.0	75.0	74.0	75.0	78.0	82.0	88.0	95.0	102.0	109.0	113.0	116.0	117.0	116.0	113.0	109.0	104.0	99.0	95.0	92.0	90.0	88.0	87.0	87.0	89.0	91.0	93.0	97.0	99.0	102.0	104.0	106.0	107.0	107.0	107.0	105.0	101.0	97.0	92.0	87.0	83.0	79.0	77.0	75.0	75.0	75.0	75.0	77.0	79.0	82.0	85.0	89.0	93.0	96.0	99.0	101.0	102.0	103.0	103.0	102.0	102.0	102.0	103.0	103.0	104.0	105.0	106.0	107.0	108.0	108.0	108.0	108.0	106.0	104.0	103.0	104.0	107.0	113.0	120.0	127.0	133.0	136.0	135.0	130.0	122.0	112.0	102.0	95.0	92.0	91.0	92.0	94.0	96.0	98.0	101.0	104.0	107.0	109.0	112.0	114.0	116.0	117.0	118.0	118.0	116.0	113.0	110.0	108.0	107.0	106.0	106.0	106.0	105.0	104.0	102.0	100.0	98.0	97.0	95.0	94.0	92.0	90.0	88.0	86.0	85.0	85.0	85.0	85.0	84.0	82.0	78.0	74.0	72.0	72.0	75.0	80.0	85.0	90.0	94.0	98.0	100.0	101.0	101.0	101.0	100.0	99.0	99.0	99.0	99.0	98.0	98.0	99.0	100.0	103.0	107.0	110.0	113.0	116.0	119.0	122.0	126.0	129.0	133.0	136.0	137.0	136.0	134.0	129.0	125.0	119.0	113.0	110.0	108.0	108.0	108.0	109.0	109.0	110.0	110.0	111.0	112.0	114.0	115.0	116.0	117.0	117.0	115.0	112.0	107.0	100.0	92.0	84.0	76.0	70.0	66.0	65.0	66.0	68.0	73.0	78.0	84.0	90.0	95.0	99.0	102.0	103.0	104.0	104.0	103.0	100.0	97.0	93.0	88.0	84.0	81.0	78.0	76.0	76.0	78.0	83.0	88.0	95.0	102.0	108.0	113.0	117.0	118.0	119.0	118.0	116.0	114.0	112.0	109.0	107.0	105.0	103.0	101.0	100.0	101.0	102.0	105.0	109.0	112.0	114.0	115.0	116.0	116.0	116.0	115.0	114.0	112.0	109.0	105.0	99.0	93.0	87.0	82.0	78.0	77.0	77.0	78.0	80.0	82.0	84.0	85.0	87.0	89.0	90.0	91.0	91.0	93.0	94.0	96.0	99.0	101.0	102.0	103.0	102.0	101.0	99.0	98.0	98.0	98.0	98.0	99.0	99.0	99.0	99.0	99.0	99.0	99.0	99.0	99.0	98.0	98.0	96.0	94.0	92.0	90.0	87.0	84.0	82.0	80.0	79.0	79.0	80.0	81.0	84.0	87.0	91.0	95.0	99.0	103.0	105.0	106.0	106.0	106.0	107.0	107.0	107.0	107.0	107.0	107.0	107.0	107.0	108.0	110.0	113.0	116.0	119.0	122.0	125.0	127.0	127.0	128.0	127.0	126.0	122.0	118.0	112.0	105.0	99.0	93.0	89.0	87.0	87.0	87.0	88.0	89.0	91.0	93.0	95.0	96.0	98.0	99.0	99.0	98.0	97.0	95.0	94.0	92.0	91.0	91.0	91.0	93.0	95.0	98.0	102.0	106.0	110.0	114.0	117.0	119.0	120.0	120.0	120.0	119.0	117.0	114.0	110.0	105.0	99.0	94.0	89.0	84.0	81.0	78.0	77.0	77.0	77.0	79.0	82.0	86.0	91.0	96.0	100.0	104.0	106.0	107.0	107.0	106.0	103.0	100.0	97.0	93.0	89.0	86.0	82.0	79.0	77.0	76.0	78.0	81.0	87.0	92.0	98.0	102.0	105.0	107.0	108.0	108.0	108.0	108.0	107.0	105.0	104.0	102.0	99.0	97.0	95.0	94.0	93.0	93.0	94.0	94.0	94.0	93.0	93.0	93.0	92.0	91.0	90.0	88.0	87.0	85.0	85.0	86.0	87.0	90.0	92.0	94.0	95.0	96.0	96.0	95.0	95.0	94.0	95.0	95.0	96.0	97.0	98.0	100.0	103.0	106.0	110.0	114.0	117.0	119.0	121.0	122.0	123.0	124.0	125.0	124.0	122.0	119.0	116.0	113.0	110.0	108.0	107.0	106.0	106.0	106.0	107.0	108.0	108.0	108.0	106.0	104.0	102.0	98.0	94.0	88.0	82.0	75.0	68.0	62.0	57.0	55.0	53.0	52.0	52.0	51.0	52.0	52.0	54.0	57.0	61.0	67.0	73.0	79.0	83.0	85.0	86.0	85.0	85.0	84.0	84.0	85.0	85.0	86.0	87.0	87.0	87.0	87.0	86.0	85.0	84.0	84.0	83.0	83.0	84.0	87.0	90.0	95.0	100.0	106.0	111.0	116.0	120.0	123.0	126.0	127.0	127.0	124.0	121.0	117.0	113.0	112.0	114.0	120.0	127.0	132.0	137.0	139.0	140.0	141.0	143.0	145.0	146.0	146.0	143.0	138.0	130.0	122.0	112.0	102.0	93.0	85.0	79.0	74.0	70.0	69.0	69.0	71.0	73.0	75.0	77.0	80.0	82.0	85.0	89.0	92.0	95.0	97.0	99.0	101.0	104.0	107.0	111.0	113.0	114.0	112.0	108.0	102.0	95.0	87.0	79.0	73.0	67.0	64.0	62.0	62.0	63.0	65.0	68.0	72.0	78.0	84.0	89.0	94.0	97.0	99.0	99.0	98.0	95.0	92.0	88.0	86.0	84.0	83.0	83.0	84.0	85.0	86.0	87.0	88.0	90.0	92.0	95.0	98.0	101.0	103.0	105.0	106.0	107.0	107.0	107.0	106.0	106.0	105.0	105.0	105.0	105.0	106.0	107.0	109.0	112.0	114.0	116.0	117.0	116.0	115.0	115.0	115.0	116.0	117.0	118.0	117.0	114.0	110.0	106.0	101.0	98.0	95.0	92.0	89.0	87.0	87.0	88.0	90.0	93.0	97.0	100.0	103.0	106.0	109.0	111.0	112.0	113.0	113.0	114.0	116.0	117.0	117.0	117.0	114.0	111.0	108.0	105.0	102.0	101.0	102.0	103.0	104.0	104.0	102.0	100.0	97.0	95.0	94.0	93.0	93.0	94.0	95.0	95.0	95.0	96.0	97.0	99.0	102.0	105.0	109.0	112.0	114.0	114.0	114.0	113.0	112.0	110.0	109.0	108.0	106.0	105.0	104.0	103.0	102.0	101.0	101.0	100.0	100.0	100.0	100.0	100.0	100.0	101.0	102.0	103.0	103.0	102.0	101.0	99.0	96.0	93.0	91.0	88.0	86.0	84.0	83.0	82.0	82.0	81.0	81.0	80.0	80.0	81.0	82.0	85.0	89.0	93.0	98.0	103.0	108.0	112.0	115.0	117.0	119.0	120.0	120.0	119.0	119.0	118.0	117.0	117.0	116.0	116.0	116.0	115.0	114.0	114.0	112.0	111.0	109.0	107.0	105.0	102.0	100.0	99.0	100.0	102.0	104.0	105.0	105.0	103.0	98.0	92.0	86.0	81.0	78.0	77.0	78.0	79.0	81.0	83.0	85.0	88.0	90.0	94.0	97.0	101.0	105.0	109.0	112.0	114.0	115.0	115.0	115.0	113.0	111.0	109.0	107.0	106.0	105.0	104.0	105.0	106.0	106.0	106.0	105.0	104.0	102.0	100.0	98.0	97.0	96.0	95.0	95.0	94.0	92.0	91.0	91.0	90.0	90.0	90.0	89.0	88.0	86.0	86.0	87.0	88.0	91.0	93.0	96.0	100.0	103.0	107.0	111.0	116.0	121.0	125.0	127.0	127.0	125.0	121.0	116.0	110.0	105.0	100.0	97.0	94.0	92.0	89.0	88.0	87.0	87.0	90.0	94.0	99.0	104.0	108.0	109.0	108.0	104.0	100.0	96.0	94.0	92.0	91.0	90.0	90.0	91.0	93.0	96.0	99.0	101.0	103.0	103.0	102.0	100.0	98.0	95.0	91.0	87.0	83.0	79.0	77.0	75.0	74.0	74.0	75.0	76.0	78.0	79.0	81.0	82.0	84.0	86.0	87.0	88.0	89.0	89.0	89.0	89.0	89.0	90.0	91.0	91.0	90.0	88.0	85.0	82.0	80.0	78.0	78.0	79.0	82.0	86.0	91.0	96.0	100.0	104.0	108.0	111.0	114.0	117.0	119.0	120.0	121.0	122.0	123.0	124.0	126.0	127.0	127.0	127.0	125.0	121.0	116.0	112.0	108.0	108.0	111.0	116.0	123.0	127.0	131.0	130.0	127.0	121.0	114.0	108.0	103.0	100.0	97.0	95.0	92.0	89.0	86.0	84.0	83.0	83.0	84.0	85.0	87.0	88.0	89.0	89.0	90.0	91.0	92.0	93.0	94.0	95.0	95.0	96.0	97.0	98.0	100.0	103.0	106.0	110.0	113.0	115.0	118.0	120.0	121.0	121.0	121.0	119.0	116.0	114.0	111.0	109.0	107.0	104.0	102.0	99.0	96.0	93.0	91.0	90.0	90.0	92.0	95.0	98.0	100.0	102.0	103.0	103.0	103.0	104.0	104.0	104.0	105.0	105.0	105.0	104.0	102.0	99.0	96.0	94.0	94.0	94.0	95.0	96.0	98.0	100.0	103.0	108.0	114.0	121.0	127.0	129.0	127.0	121.0	111.0	98.0	86.0	76.0	68.0	64.0	62.0	62.0	64.0	68.0	73.0	78.0	83.0	88.0	91.0	94.0	96.0	96.0	96.0	95.0	94.0	93.0	91.0	90.0	88.0	87.0	87.0	87.0	87.0	89.0	90.0	92.0	95.0	99.0	105.0	112.0	119.0	126.0	130.0	132.0	132.0	129.0	126.0	121.0	115.0	109.0	104.0	100.0	97.0	94.0	93.0	93.0	94.0	96.0	99.0	102.0	106.0	109.0	111.0	112.0	113.0	114.0	114.0	113.0	113.0	113.0	112.0	112.0	111.0	109.0	108.0	108.0	108.0	109.0	112.0	114.0	117.0	120.0	124.0	127.0	129.0	131.0	132.0	129.0	125.0	117.0	108.0	98.0	89.0	82.0	77.0	74.0	73.0	73.0	74.0	74.0	75.0	76.0	78.0	81.0	85.0	90.0	96.0	102.0	108.0	112.0	116.0	117.0	116.0	114.0	111.0	108.0	104.0	101.0	98.0	97.0	97.0	98.0	99.0	101.0	102.0	103.0	104.0	105.0	107.0	109.0	110.0	110.0	109.0	105.0	99.0	93.0	87.0	81.0	76.0	71.0	68.0	66.0	66.0	66.0	67.0	68.0	71.0	74.0	77.0	80.0	83.0	87.0	90.0	93.0	95.0	98.0	100.0	102.0	105.0	107.0	108.0	110.0	110.0	111.0	110.0	108.0	104.0	100.0	95.0	92.0	92.0	94.0	99.0	104.0	108.0	110.0	110.0	107.0	103.0	97.0	91.0	86.0	82.0	80.0	79.0	79.0	80.0	81.0	84.0	87.0	91.0	96.0	101.0	107.0	111.0	115.0	118.0	120.0	120.0	120.0	117.0	113.0	109.0	104.0	99.0	95.0	91.0	88.0	87.0	87.0	88.0	89.0	89.0	88.0	87.0	86.0	85.0	84.0	82.0	79.0	77.0	74.0	73.0	72.0	72.0	72.0	71.0	72.0	73.0	77.0	83.0	90.0	98.0	105.0	111.0	115.0	119.0	122.0	126.0	128.0	131.0	133.0	132.0	129.0	126.0	122.0	118.0	115.0	112.0	110.0	108.0	107.0	105.0	103.0	101.0	100.0	99.0	100.0	104.0	110.0	118.0	126.0	131.0	134.0	133.0	127.0	120.0	111.0	102.0	95.0	91.0	89.0	88.0	89.0	89.0	87.0	85.0	83.0	81.0	80.0	81.0	82.0	84.0	85.0	85.0	85.0	84.0	84.0	83.0	83.0	83.0	84.0	85.0	86.0	88.0	90.0	93.0	96.0	98.0	99.0	98.0	97.0	95.0	92.0	91.0	90.0	91.0	92.0	93.0	95.0	95.0	95.0	94.0	91.0	88.0	85.0	84.0	85.0	86.0	88.0	91.0	93.0	95.0	97.0	99.0	102.0	105.0	108.0	113.0	117.0	120.0	122.0	123.0	121.0	118.0	113.0	109.0	106.0	104.0	104.0	105.0	108.0	112.0	115.0	119.0	125.0	131.0	141.0	153.0	168.0	181.0	191.0	195.0	193.0	186.0	175.0	163.0	152.0	142.0	132.0	124.0	116.0	109.0	103.0	98.0	95.0	92.0	90.0	88.0	84.0	77.0	65.0	47.0	23.0	0.0	0.0	0.0	0.0	0.0	0.0	0.0	0.0	0.0	0.0	0.0	0.0	0.0	0.0	0.0	2.0	17.0	32.0	47.0	62.0	76.0	89.0	102.0	115.0	127.0	137.0	147.0	154.0	157.0	156.0	152.0	146.0	141.0	136.0	134.0	132.0	130.0	129.0	127.0	127.0	125.0	123.0	120.0	118.0	116.0	115.0	114.0	114.0	115.0	116.0	118.0	120.0	123.0	126.0	129.0	135.0	142.0	150.0	158.0	165.0	171.0	176.0	180.0	184.0	186.0	188.0	189.0	187.0	184.0	178.0	170.0	162.0	153.0	145.0	138.0	131.0	125.0	119.0	113.0	109.0	105.0	103.0	103.0	104.0	107.0	110.0	113.0	115.0	116.0	116.0	115.0	114.0	112.0	109.0	107.0	104.0	102.0	100.0	97.0	95.0	94.0	93.0	94.0	95.0	98.0	102.0	106.0	110.0	113.0	116.0	116.0	116.0	115.0	113.0	110.0	107.0	102.0	96.0	90.0	82.0	75.0	68.0	63.0	60.0	59.0	61.0	65.0	71.0	79.0	88.0	97.0	107.0	114.0	117.0	118.0	117.0	115.0	114.0	113.0	111.0	109.0	107.0	104.0	103.0	102.0	102.0	103.0	105.0	109.0	112.0	115.0	118.0	120.0	121.0	123.0	124.0	126.0	127.0	127.0	126.0	123.0	120.0	115.0	109.0	103.0	97.0	92.0	89.0	87.0	87.0	88.0	89.0	92.0	95.0	100.0	105.0	110.0	113.0	114.0	112.0	109.0	104.0	99.0	94.0	89.0	84.0	80.0	77.0	75.0	74.0	74.0	73.0	73.0	74.0	75.0	77.0	80.0	84.0	87.0	89.0	91.0	91.0	91.0	90.0	89.0	88.0	86.0	84.0	83.0	82.0	81.0	80.0	79.0	77.0	75.0	73.0	73.0	74.0	76.0	78.0	81.0	84.0	87.0	89.0	91.0	93.0	94.0	95.0	97.0	98.0	101.0	103.0	106.0	109.0	112.0	115.0	118.0	120.0	123.0	125.0	126.0	127.0	127.0	127.0	125.0	123.0	122.0	122.0	124.0	127.0	128.0	129.0	128.0	126.0	122.0	118.0	114.0	110.0	107.0	104.0	102.0	99.0	97.0	94.0	91.0	89.0	87.0	88.0	91.0	95.0	99.0	101.0	101.0	98.0	95.0	93.0	92.0	92.0	93.0	94.0	94.0	94.0	94.0	95.0	96.0	98.0	100.0	102.0	103.0	104.0	104.0	105.0	107.0	109.0	110.0	109.0	107.0	103.0	98.0	93.0	88.0	82.0	75.0	68.0	61.0	55.0	52.0	52.0	56.0	61.0	67.0	73.0	79.0	84.0	89.0	93.0	95.0	97.0	98.0	98.0	98.0	98.0	96.0	95.0	93.0	91.0	90.0	89.0	89.0	90.0	92.0	96.0	99.0	102.0	103.0	102.0	101.0	98.0	97.0	98.0	102.0	109.0	117.0	125.0	129.0	131.0	129.0	127.0	123.0	119.0	116.0	114.0	113.0	112.0	112.0	112.0	112.0	112.0	112.0	111.0	110.0	108.0	106.0	104.0	102.0	100.0	100.0	99.0	99.0	99.0	98.0	97.0	96.0	94.0	94.0	94.0	96.0	99.0	102.0	105.0	106.0	107.0	107.0	107.0	107.0	109.0	110.0	111.0	111.0	110.0	107.0	103.0	99.0	97.0	95.0	96.0	96.0	97.0	98.0	99.0	99.0	98.0	98.0	98.0	99.0	99.0	99.0	99.0	99.0	99.0	98.0	96.0	95.0	93.0	91.0	89.0	88.0	86.0	85.0	84.0	82.0	79.0	77.0	75.0	73.0	73.0	73.0	74.0	75.0	78.0	81.0	86.0	91.0	95.0	99.0	101.0	101.0	99.0	97.0	94.0	93.0	92.0	92.0	93.0	94.0	95.0	97.0	98.0	100.0	101.0	102.0	103.0	103.0	103.0	103.0	102.0	101.0	100.0	100.0	99.0	99.0	99.0	99.0	98.0	98.0	97.0	97.0	97.0	97.0	98.0	98.0	98.0	97.0	95.0	93.0	91.0	90.0	91.0	93.0	97.0	102.0	107.0	112.0	116.0	118.0	119.0	118.0	117.0	116.0	115.0	113.0	112.0	110.0	108.0	105.0	103.0	100.0	99.0	97.0	96.0	96.0	96.0	97.0	99.0	101.0	103.0	104.0	104.0	103.0	102.0	101.0	101.0	103.0	107.0	113.0	122.0	130.0	140.0	148.0	155.0	158.0	157.0	153.0	144.0	131.0	118.0	104.0	92.0	83.0	78.0	78.0	79.0	83.0	87.0	91.0	96.0	101.0	106.0	111.0	114.0	116.0	115.0	112.0	109.0	105.0	102.0	100.0	99.0	98.0	98.0	99.0	100.0	101.0	103.0	104.0	104.0	104.0	104.0	103.0	102.0	101.0	100.0	98.0	97.0	95.0	93.0	91.0	88.0	86.0	84.0	82.0	81.0	80.0	81.0	83.0	85.0	87.0	89.0	89.0	88.0	86.0	84.0	83.0	82.0	82.0	83.0	83.0	84.0	84.0	85.0	85.0	86.0	87.0	89.0	93.0	97.0	101.0	106.0	110.0	114.0	117.0	118.0	120.0	122.0	125.0	129.0	134.0	139.0	143.0	146.0	147.0	145.0	142.0	137.0	130.0	122.0	114.0	106.0	99.0	95.0	93.0	93.0	95.0	99.0	104.0	110.0	116.0	121.0	125.0	126.0	126.0	123.0	118.0	113.0	108.0	103.0	98.0	94.0	89.0	85.0	83.0	83.0	86.0	91.0	97.0	101.0	103.0	103.0	102.0	99.0	95.0	90.0	85.0	79.0	72.0	66.0	61.0	56.0	53.0	49.0	46.0	43.0	40.0	37.0	35.0	35.0	36.0	39.0	45.0	53.0	62.0	72.0	81.0	89.0	95.0	99.0	102.0	105.0	107.0	110.0	112.0	113.0	113.0	112.0	111.0	111.0	111.0	112.0	114.0	117.0	121.0	126.0	130.0	135.0	139.0	141.0	142.0	141.0	139.0	136.0	133.0	128.0	125.0	120.0	115.0	108.0	102.0	95.0	89.0	84.0	79.0	75.0	72.0	72.0	74.0	80.0	89.0	98.0	107.0	115.0	121.0	126.0	130.0	133.0	134.0	133.0	129.0	125.0	120.0	116.0	114.0	112.0	111.0	110.0	108.0	108.0	107.0	107.0	106.0	105.0	103.0	100.0	96.0	92.0	86.0	80.0	75.0	72.0	69.0	69.0	69.0	69.0	70.0	71.0	72.0	74.0	76.0	79.0	83.0	88.0	95.0	102.0	109.0	114.0	117.0	118.0	116.0	113.0	110.0	107.0	105.0	104.0	105.0	107.0	110.0	114.0	117.0	121.0	125.0	128.0	132.0	136.0	140.0	142.0	142.0	139.0	135.0	129.0	123.0	115.0	107.0	98.0	90.0	83.0	77.0	73.0	71.0	71.0	73.0	76.0	80.0	84.0	89.0	95.0	101.0	108.0	115.0	120.0	123.0	123.0	121.0	116.0	111.0	105.0	100.0	95.0	90.0	85.0	82.0	80.0	79.0	79.0	80.0	81.0	83.0	86.0	90.0	93.0	95.0	95.0	93.0	89.0	85.0	81.0	77.0	74.0	71.0	67.0	64.0	60.0	57.0	56.0	57.0	59.0	63.0	68.0	74.0	80.0	86.0	92.0	98.0	105.0	111.0	115.0	118.0	118.0	116.0	113.0	109.0	104.0	98.0	93.0	89.0	86.0	84.0	84.0	85.0	87.0	89.0	91.0	93.0	95.0	98.0	100.0	104.0	107.0	109.0	110.0	109.0	105.0	99.0	93.0	87.0	83.0	81.0	81.0	82.0	83.0	85.0	88.0	92.0	97.0	102.0	109.0	115.0	122.0	127.0	133.0	137.0	139.0	140.0	139.0	137.0	132.0	127.0	120.0	111.0	103.0	96.0	90.0	86.0	84.0	85.0	88.0	92.0	97.0	101.0	103.0	105.0	105.0	104.0	103.0	101.0	99.0	96.0	93.0	89.0	84.0	81.0	78.0	77.0	77.0	79.0	83.0	90.0	99.0	111.0	126.0	140.0	155.0	167.0	176.0	181.0	182.0	178.0	171.0	160.0	147.0	134.0	124.0	115.0	110.0	109.0	110.0	113.0	118.0	124.0	129.0	134.0	138.0	140.0	138.0	134.0	128.0	124.0	119.0	116.0	112.0	106.0	97.0	86.0	74.0	63.0	55.0	50.0	49.0	51.0	56.0	65.0	78.0	95.0	112.0	126.0	135.0	137.0	133.0	123.0	108.0	91.0	74.0	60.0	50.0	44.0	41.0	40.0	41.0	45.0	51.0	59.0	66.0	72.0	77.0	79.0	80.0	81.0	80.0	78.0	76.0	74.0	74.0	74.0	72.0	68.0	61.0	51.0	39.0	29.0	23.0	21.0	23.0	28.0	34.0	39.0	46.0	54.0	62.0	70.0	76.0	81.0	84.0	86.0	90.0	95.0	100.0	106.0	111.0	117.0	122.0	126.0	130.0	135.0	140.0	144.0	148.0	150.0	152.0	152.0	152.0	150.0	148.0	144.0	139.0	132.0	124.0	114.0	105.0	96.0	90.0	87.0	88.0	92.0	97.0	104.0	110.0	115.0	118.0	120.0	122.0	122.0	123.0	122.0	120.0	116.0	112.0	108.0	103.0	99.0	95.0	93.0	90.0	88.0	88.0	88.0	88.0	89.0	89.0	89.0	90.0	93.0	97.0	101.0	104.0	107.0	108.0	109.0	109.0	108.0	106.0	104.0	101.0	99.0	98.0	97.0	96.0	95.0	94.0	94.0	94.0	95.0	96.0	97.0	99.0	100.0	102.0	103.0	105.0	108.0	111.0	114.0	117.0	119.0	119.0	118.0	116.0	114.0	111.0	109.0	108.0	107.0	106.0	106.0	106.0	108.0	110.0	113.0	116.0	119.0	122.0	123.0	122.0	120.0	116.0	110.0	105.0	99.0	93.0	89.0	86.0	84.0	85.0	86.0	88.0	90.0	92.0	94.0	96.0	99.0	102.0	105.0	109.0	111.0	112.0	111.0	109.0	105.0	101.0	96.0	92.0	87.0	82.0	78.0	74.0	71.0	67.0	64.0	61.0	59.0	58.0	57.0	58.0	59.0	61.0	62.0	63.0	64.0	65.0	66.0	68.0	70.0	72.0	74.0	76.0	77.0	79.0	80.0	80.0	81.0	82.0	83.0	85.0	88.0	91.0	93.0	96.0	98.0	100.0	102.0	104.0	106.0	109.0	112.0	114.0	115.0	117.0	118.0	119.0	120.0	120.0	120.0	120.0	119.0	119.0	120.0	122.0	125.0	127.0	131.0	132.0	133.0	131.0	129.0	127.0	125.0	123.0	120.0	117.0	113.0	108.0	103.0	98.0	93.0	91.0	91.0	93.0	97.0	103.0	110.0	118.0	125.0	130.0	136.0	141.0	145.0	148.0	149.0	148.0	145.0	140.0	135.0	130.0	126.0	122.0	118.0	114.0	111.0	108.0	105.0	104.0	102.0	100.0	98.0	96.0	92.0	89.0	85.0	81.0	77.0	72.0	68.0	64.0	61.0	58.0	57.0	57.0	58.0	109.0	108.0	109.0	110.0	111.0	113.0	114.0	116.0	118.0	119.0	120.0	119.0	117.0	113.0	108.0	103.0	98.0	94.0	91.0	89.0	87.0	85.0	82.0	82.0	85.0	92.0	103.0	117.0	129.0	138.0	141.0	139.0	132.0	122.0	110.0	98.0	86.0	76.0	68.0	62.0	59.0	59.0	59.0	61.0	63.0	64.0	64.0	62.0	59.0	55.0	51.0	47.0	43.0	40.0	36.0	33.0	32.0	34.0	38.0	45.0	55.0	64.0	70.0	73.0	74.0	72.0	71.0	71.0	74.0	78.0	83.0	86.0	88.0	89.0	90.0	90.0	91.0	90.0	89.0	86.0	83.0	79.0	75.0	72.0	71.0	71.0	72.0	73.0	73.0	73.0	73.0	73.0	75.0	79.0	83.0	88.0	92.0	95.0	96.0	95.0	93.0	91.0	89.0	87.0	87.0	88.0	89.0	91.0	94.0	96.0	98.0	100.0	101.0	103.0	104.0	104.0	104.0	103.0	102.0	101.0	101.0	104.0	110.0	116.0	123.0	127.0	127.0	126.0	124.0	122.0	121.0	121.0	119.0	118.0	116.0	115.0	113.0	111.0	108.0	105.0	102.0	101.0	101.0	103.0	109.0	115.0	121.0	125.0	125.0	121.0	115.0	107.0	101.0	98.0	97.0	99.0	102.0	105.0	107.0	108.0	110.0	112.0	115.0	118.0	123.0	127.0	130.0	133.0	134.0	135.0	135.0	135.0	135.0	135.0	136.0	136.0	135.0	134.0	133.0	134.0	135.0	137.0	139.0	139.0	137.0	134.0	128.0	121.0	114.0	107.0	101.0	97.0	95.0	95.0	97.0	100.0	104.0	107.0	110.0	111.0	111.0	110.0	108.0	106.0	104.0	102.0	101.0	101.0	101.0	101.0	102.0	103.0	103.0	103.0	103.0	102.0	102.0	101.0	100.0	100.0	99.0	100.0	101.0	104.0	107.0	110.0	112.0	113.0	112.0	110.0	108.0	105.0	103.0	99.0	96.0	93.0	90.0	89.0	89.0	91.0	95.0	100.0	106.0	113.0	119.0	126.0	131.0	137.0	141.0	145.0	147.0	148.0	148.0	149.0	149.0	149.0	149.0	148.0	146.0	145.0	143.0	142.0	141.0	138.0	134.0	128.0	124.0	119.0	116.0	113.0	112.0	111.0	110.0	108.0	104.0	99.0	93.0	87.0	80.0	74.0	69.0	67.0	66.0	68.0	71.0	74.0	78.0	80.0	82.0	82.0	80.0	79.0	77.0	76.0	76.0	76.0	77.0	76.0	74.0	70.0	65.0	60.0	55.0	51.0	49.0	49.0	51.0	54.0	58.0	62.0	67.0	71.0	76.0	81.0	86.0	90.0	94.0	98.0	101.0	103.0	104.0	103.0	100.0	97.0	93.0	89.0	86.0	84.0	83.0	83.0	83.0	85.0	86.0	88.0	89.0	91.0	93.0	94.0	95.0	95.0	95.0	95.0	96.0	96.0	96.0	97.0	98.0	100.0	102.0	105.0	109.0	113.0	118.0	122.0	126.0	127.0	127.0	126.0	123.0	119.0	115.0	112.0	108.0	105.0	102.0	100.0	98.0	98.0	98.0	99.0	100.0	99.0	97.0	94.0	89.0	84.0	78.0	74.0	70.0	68.0	68.0	69.0	71.0	72.0	74.0	76.0	79.0	82.0	85.0	89.0	93.0	95.0	97.0	97.0	97.0	96.0	93.0	90.0	87.0	84.0	82.0	81.0	80.0	81.0	82.0	85.0	88.0	92.0	95.0	97.0	97.0	96.0	94.0	90.0	86.0	83.0	81.0	80.0	81.0	82.0	83.0	85.0	86.0	87.0	89.0	91.0	93.0	95.0	97.0	98.0	99.0	100.0	101.0	101.0	102.0	103.0	103.0	104.0	105.0	106.0	108.0	110.0	113.0	116.0	120.0	122.0	123.0	122.0	119.0	116.0	113.0	110.0	109.0	107.0	106.0	104.0	102.0	99.0	95.0	90.0	84.0	80.0	77.0	77.0	79.0	82.0	87.0	91.0	94.0	96.0	97.0	98.0	99.0	99.0	100.0	100.0	100.0	100.0	99.0	99.0	99.0	99.0	100.0	101.0	101.0	101.0	100.0	99.0	99.0	98.0	97.0	98.0	98.0	99.0	99.0	99.0	98.0	97.0	95.0	94.0	93.0	92.0	93.0	95.0	97.0	100.0	103.0	104.0	104.0	104.0	103.0	103.0	104.0	107.0	111.0	114.0	116.0	117.0	116.0	114.0	112.0	111.0	110.0	110.0	110.0	111.0	112.0	112.0	112.0	113.0	113.0	114.0	117.0	121.0	125.0	129.0	133.0	136.0	138.0	138.0	137.0	135.0	133.0	130.0	127.0	123.0	119.0	114.0	109.0	105.0	102.0	99.0	98.0	96.0	95.0	94.0	93.0	93.0	94.0	95.0	97.0	99.0	101.0	102.0	103.0	103.0	102.0	100.0	98.0	95.0	93.0	91.0	89.0	88.0	87.0	87.0	86.0	85.0	84.0	84.0	84.0	84.0	83.0	82.0	81.0	79.0	78.0	77.0	77.0	77.0	77.0	77.0	77.0	77.0	77.0	77.0	76.0	76.0	75.0	75.0	75.0	76.0	76.0	77.0	78.0	79.0	82.0	85.0	89.0	94.0	100.0	106.0	112.0	117.0	120.0	122.0	125.0	127.0	131.0	136.0	141.0	145.0	148.0	151.0	153.0	156.0	159.0	163.0	165.0	167.0	168.0	169.0	170.0	170.0	169.0	167.0	164.0	160.0	156.0	151.0	147.0	142.0	136.0	130.0	123.0	114.0	104.0	95.0	86.0	78.0	74.0	73.0	76.0	81.0	88.0	95.0	101.0	105.0	107.0	107.0	105.0	101.0	97.0	92.0	89.0	86.0	83.0	82.0	81.0	81.0	83.0	87.0	92.0	97.0	100.0	100.0	98.0	96.0	95.0	96.0	97.0	98.0	98.0	96.0	92.0	86.0	79.0	71.0	64.0	57.0	52.0	48.0	46.0	44.0	43.0	43.0	44.0	47.0	51.0	55.0	60.0	64.0	69.0	74.0	79.0	86.0	92.0	99.0	105.0	111.0	116.0	119.0	122.0	124.0	126.0	127.0	129.0	132.0	135.0	137.0	140.0	142.0	145.0	149.0	156.0	164.0	173.0	181.0	187.0	191.0	193.0	191.0	187.0	181.0	172.0	163.0	154.0	147.0	142.0	138.0	135.0	133.0	130.0	128.0	127.0	125.0	122.0	119.0	116.0	112.0	109.0	105.0	102.0	98.0	93.0	89.0	84.0	80.0	75.0	72.0	70.0	70.0	70.0	70.0	71.0	72.0	72.0	72.0	70.0	67.0	64.0	59.0	56.0	53.0	53.0	53.0	54.0	55.0	55.0	55.0	55.0	55.0	54.0	53.0	48.0	41.0	30.0	18.0	6.0	0.0	0.0	0.0	0.0	0.0	4.0	7.0	8.0	5.0	0.0	0.0	0.0	0.0	0.0	0.0	0.0	0.0	0.0	3.0	14.0	23.0	28.0	29.0	27.0	25.0	23.0	25.0	32.0	45.0	64.0	85.0	103.0	115.0	122.0	123.0	122.0	119.0	114.0	105.0	93.0	78.0	63.0	51.0	45.0	47.0	56.0	70.0	89.0	108.0	127.0	144.0	157.0	168.0	175.0	179.0	182.0	183.0	182.0	180.0	177.0	174.0	170.0	167.0	165.0	164.0	163.0	164.0	166.0	167.0	169.0	171.0	172.0	173.0	174.0	175.0	175.0	176.0	176.0	176.0	177.0	177.0	177.0	175.0	172.0	167.0	160.0	154.0	147.0	140.0	134.0	128.0	123.0	119.0	115.0	113.0	111.0	110.0	109.0	109.0	109.0	109.0	109.0	108.0	108.0	107.0	106.0	105.0	105.0	105.0	105.0	105.0	105.0	106.0	106.0	107.0	109.0	114.0	120.0	127.0	135.0	143.0	149.0	151.0	150.0	145.0	140.0	134.0	131.0	128.0	127.0	127.0	123.0	118.0	111.0	102.0	94.0	86.0	80.0	75.0	71.0	68.0	66.0	66.0	68.0	70.0	73.0	76.0	78.0	80.0	81.0	81.0	80.0	79.0	78.0	77.0	77.0	76.0	77.0	78.0	81.0	85.0	90.0	96.0	101.0	104.0	106.0	107.0	107.0	107.0	107.0	108.0	109.0	109.0	108.0	106.0	103.0	99.0	95.0	90.0	85.0	80.0	75.0	71.0	69.0	69.0	69.0	71.0	73.0	76.0	79.0	81.0	83.0	85.0	87.0	89.0	90.0	91.0	93.0	94.0	95.0	97.0	98.0	100.0	102.0	105.0	110.0	116.0	125.0	134.0	143.0	151.0	156.0	157.0	153.0	146.0	137.0	127.0	119.0	111.0	104.0	98.0	93.0	86.0	80.0	73.0	68.0	64.0	62.0	61.0	63.0	65.0	69.0	74.0	79.0	84.0	88.0	90.0	92.0	93.0	94.0	94.0	95.0	95.0	96.0	96.0	97.0	98.0	98.0	98.0	97.0	97.0	98.0	100.0	103.0	106.0	111.0	115.0	118.0	118.0	118.0	115.0	112.0	108.0	105.0	101.0	98.0	95.0	93.0	90.0	87.0	85.0	82.0	80.0	79.0	78.0	77.0	77.0	79.0	82.0	86.0	90.0	93.0	96.0	97.0	97.0	96.0	96.0	95.0	94.0	93.0	92.0	92.0	91.0	92.0	93.0	95.0	98.0	102.0	107.0	111.0	116.0	119.0	120.0	119.0	116.0	112.0	108.0	105.0	103.0	102.0	102.0	101.0	100.0	97.0	92.0	87.0	81.0	76.0	72.0	69.0	66.0	65.0	64.0	63.0	63.0	62.0	62.0	64.0	67.0	72.0	79.0	87.0	96.0	104.0	110.0	115.0	118.0	119.0	119.0	118.0	117.0	115.0	113.0	112.0	112.0	113.0	115.0	118.0	120.0	121.0	121.0	120.0	117.0	114.0	110.0	106.0	101.0	96.0	90.0	85.0	80.0	75.0	71.0	68.0	65.0	63.0	63.0	62.0	62.0	62.0	64.0	66.0	69.0	74.0	79.0	84.0	87.0	89.0	91.0	91.0	90.0	89.0	89.0	88.0	88.0	89.0	92.0	95.0	99.0	104.0	109.0	114.0	119.0	123.0	125.0	126.0	125.0	123.0	119.0	116.0	115.0	115.0	117.0	119.0	120.0	118.0	113.0	106.0	97.0	88.0	81.0	75.0	71.0	69.0	67.0	66.0	66.0	68.0	71.0	76.0	82.0	87.0	92.0	96.0	100.0	102.0	103.0	103.0	103.0	102.0	102.0	103.0	104.0	105.0	107.0	109.0	112.0	116.0	120.0	123.0	126.0	127.0	127.0	125.0	122.0	119.0	115.0	111.0	107.0	103.0	100.0	97.0	95.0	93.0	93.0	93.0	94.0	94.0	95.0	96.0	96.0	96.0	97.0	98.0	100.0	102.0	104.0	105.0	104.0	103.0	101.0	99.0	96.0	94.0	92.0	90.0	90.0	92.0	96.0	101.0	107.0	114.0	121.0	127.0	130.0	132.0	132.0	130.0	128.0	126.0	124.0	123.0	124.0	125.0	126.0	126.0	123.0	118.0	110.0	101.0	92.0	83.0	75.0	68.0	64.0	60.0	58.0	57.0	57.0	57.0	59.0	61.0	63.0	66.0	68.0	71.0	73.0	74.0	75.0	76.0	77.0	78.0	80.0	84.0	88.0	93.0	98.0	103.0	108.0	112.0	116.0	119.0	121.0	122.0	121.0	120.0	118.0	116.0	114.0	113.0	112.0	111.0	109.0	107.0	105.0	103.0	101.0	100.0	98.0	96.0	93.0	89.0	86.0	82.0	81.0	80.0	81.0	82.0	84.0	85.0	86.0	87.0	88.0	88.0	89.0	91.0	93.0	97.0	100.0	104.0	108.0	110.0	111.0	111.0	111.0	112.0	113.0	115.0	118.0	120.0	123.0	124.0	124.0	125.0	127.0	127.0	129.0	129.0	127.0	123.0	117.0	109.0	102.0	96.0	91.0	87.0	83.0	80.0	77.0	74.0	73.0	72.0	72.0	73.0	73.0	74.0	75.0	76.0	76.0	75.0	74.0	74.0	73.0	74.0	75.0	78.0	82.0	86.0	91.0	94.0	97.0	98.0	100.0	101.0	103.0	105.0	107.0	108.0	110.0	110.0	111.0	112.0	112.0	113.0	113.0	114.0	114.0	114.0	111.0	107.0	103.0	98.0	94.0	90.0	88.0	87.0	88.0	89.0	91.0	94.0	96.0	97.0	96.0	95.0	94.0	93.0	93.0	94.0	95.0	97.0	98.0	99.0	99.0	98.0	98.0	98.0	97.0	97.0	97.0	97.0	96.0	96.0	97.0	99.0	102.0	105.0	109.0	112.0	114.0	113.0	109.0	103.0	96.0	90.0	85.0	82.0	81.0	81.0	81.0	82.0	83.0	84.0	86.0	88.0	90.0	92.0	94.0	95.0	96.0	97.0	99.0	101.0	103.0	105.0	106.0	107.0	107.0	107.0	106.0	106.0	105.0	105.0	105.0	106.0	106.0	107.0	107.0	107.0	107.0	107.0	107.0	106.0	105.0	105.0	106.0	108.0	111.0	114.0	116.0	117.0	116.0	113.0	108.0	104.0	99.0	94.0	91.0	89.0	89.0	90.0	92.0	96.0	99.0	101.0	104.0	107.0	110.0	112.0	113.0	114.0	114.0	113.0	111.0	108.0	104.0	101.0	98.0	95.0	94.0	93.0	93.0	95.0	99.0	104.0	109.0	114.0	117.0	119.0	118.0	116.0	112.0	107.0	102.0	98.0	95.0	93.0	93.0	92.0	92.0	92.0	91.0	91.0	91.0	91.0	92.0	94.0	96.0	98.0	100.0	101.0	101.0	101.0	101.0	102.0	104.0	106.0	109.0	113.0	116.0	119.0	122.0	125.0	127.0	130.0	132.0	133.0	133.0	133.0	131.0	129.0	127.0	124.0	121.0	117.0	113.0	109.0	105.0	101.0	97.0	93.0	89.0	86.0	83.0	80.0	79.0	78.0	79.0	82.0	87.0	93.0	99.0	105.0	109.0	111.0	111.0	111.0	110.0	109.0	108.0	107.0	107.0	108.0	109.0	110.0	111.0	112.0	112.0	112.0	110.0	109.0	107.0	106.0	106.0	106.0	107.0	109.0	112.0	115.0	117.0	118.0	117.0	114.0	110.0	104.0	99.0	95.0	91.0	88.0	85.0	83.0	81.0	80.0	80.0	81.0	84.0	87.0	91.0	94.0	97.0	99.0	99.0	99.0	97.0	95.0	94.0	92.0	92.0	91.0	92.0	92.0	92.0	92.0	93.0	94.0	96.0	97.0	98.0	99.0	99.0	99.0	98.0	98.0	97.0	96.0	95.0	93.0	91.0	89.0	87.0	86.0	85.0	84.0	83.0	82.0	80.0	79.0	80.0	81.0	85.0	89.0	95.0	100.0	105.0	108.0	110.0	111.0	110.0	109.0	108.0	107.0	107.0	107.0	107.0	106.0	106.0	106.0	106.0	106.0	106.0	106.0	106.0	105.0	104.0	103.0	104.0	106.0	109.0	111.0	113.0	112.0	108.0	103.0	96.0	88.0	81.0	76.0	73.0	72.0	74.0	76.0	80.0	83.0	87.0	91.0	95.0	100.0	104.0	107.0	109.0	109.0	108.0	105.0	101.0	97.0	94.0	90.0	88.0	87.0	88.0	91.0	97.0	103.0	108.0	113.0	115.0	116.0	115.0	113.0	111.0	107.0	102.0	97.0	92.0	88.0	84.0	81.0	80.0	79.0	78.0	78.0	77.0	75.0	73.0	72.0	72.0	74.0	78.0	83.0	88.0	94.0	100.0	105.0	108.0	111.0	112.0	113.0	114.0	116.0	117.0	117.0	118.0	118.0	116.0	114.0	113.0	111.0	110.0	109.0	107.0	105.0	103.0	101.0	101.0	103.0	107.0	112.0	117.0	120.0	120.0	118.0	113.0	107.0	101.0	95.0	91.0	89.0	88.0	87.0	86.0	84.0	82.0	81.0	82.0	84.0	89.0	95.0	101.0	107.0	112.0	117.0	120.0	121.0	122.0	120.0	118.0	115.0	112.0	109.0	107.0	105.0	104.0	104.0	104.0	103.0	103.0	102.0	101.0	100.0	99.0	98.0	97.0	96.0	94.0	93.0	91.0	90.0	89.0	87.0	87.0	86.0	86.0	85.0	83.0	80.0	78.0	78.0	78.0	80.0	82.0	86.0	90.0	94.0	99.0	105.0	111.0	116.0	120.0	124.0	127.0	127.0	128.0	127.0	125.0	121.0	116.0	111.0	106.0	103.0	100.0	98.0	98.0	99.0	101.0	104.0	108.0	111.0	112.0	110.0	107.0	101.0	94.0	86.0	79.0	73.0	69.0	69.0	71.0	75.0	80.0	85.0	89.0	93.0	96.0	98.0	99.0	98.0	95.0	90.0	85.0	81.0	77.0	76.0	77.0	80.0	83.0	87.0	91.0	94.0	96.0	97.0	98.0	98.0	99.0	100.0	101.0	102.0	103.0	104.0	105.0	105.0	106.0	107.0	108.0	108.0	109.0	108.0	106.0	104.0	101.0	99.0	97.0	95.0	94.0	93.0	92.0	91.0	90.0	90.0	90.0	91.0	93.0	95.0	98.0	100.0	102.0	103.0	104.0	106.0	108.0	110.0	113.0	116.0	118.0	119.0	118.0	115.0	111.0	105.0	100.0	97.0	94.0	94.0	95.0	97.0	99.0	102.0	106.0	109.0	113.0	116.0	118.0	119.0	117.0	114.0	108.0	102.0	97.0	93.0	91.0	90.0	92.0	93.0	95.0	96.0	97.0	97.0	96.0	96.0	96.0	96.0	96.0	97.0	97.0	98.0	100.0	102.0	105.0	108.0	112.0	114.0	115.0	115.0	113.0	111.0	109.0	106.0	104.0	102.0	100.0	99.0	98.0	96.0	95.0	94.0	93.0	93.0	94.0	95.0	97.0	99.0	100.0	101.0	102.0	102.0	100.0	97.0	94.0	89.0	83.0	77.0	71.0	67.0	64.0	64.0	66.0	69.0	72.0	76.0	80.0	84.0	88.0	93.0	98.0	103.0	108.0	113.0	117.0	119.0	121.0	121.0	120.0	119.0	119.0	119.0	120.0	121.0	120.0	118.0	115.0	110.0	106.0	102.0	100.0	98.0	98.0	98.0	97.0	95.0	92.0	89.0	85.0	82.0	80.0	79.0	80.0	82.0	86.0	92.0	97.0	103.0	107.0	110.0	111.0	110.0	107.0	104.0	99.0	95.0	91.0	90.0	90.0	92.0	96.0	100.0	105.0	109.0	115.0	120.0	124.0	127.0	128.0	128.0	126.0	122.0	117.0	113.0	108.0	103.0	98.0	93.0	89.0	86.0	84.0	82.0	80.0	79.0	76.0	74.0	73.0	73.0	74.0	76.0	79.0	82.0	85.0	86.0	87.0	88.0	88.0	88.0	87.0	87.0	86.0	85.0	85.0	86.0	89.0	93.0	98.0	103.0	108.0	112.0	116.0	119.0	121.0	124.0	127.0	132.0	136.0	141.0	145.0	147.0	148.0	149.0	149.0	149.0	148.0	145.0	140.0	133.0	124.0	115.0	107.0	101.0	97.0	96.0	97.0	99.0	101.0	105.0	108.0	111.0	113.0	115.0	117.0	117.0	115.0	113.0	109.0	104.0	100.0	96.0	94.0	93.0	93.0	93.0	93.0	92.0	91.0	88.0	84.0	80.0	76.0	72.0	69.0	66.0	65.0	64.0	64.0	63.0	64.0	65.0	68.0	72.0	77.0	83.0	88.0	92.0	93.0	93.0	91.0	89.0	86.0	84.0	82.0	81.0	82.0	84.0	88.0	93.0	97.0	101.0	104.0	107.0	109.0	111.0	112.0	113.0	114.0	115.0	117.0	119.0	122.0	124.0	126.0	127.0	130.0	133.0	138.0	144.0	149.0	154.0	157.0	157.0	156.0	153.0	149.0	144.0	139.0	134.0	128.0	123.0	117.0	110.0	102.0	94.0	88.0	82.0	79.0	78.0	80.0	83.0	86.0	91.0	94.0	97.0	99.0	99.0	99.0	98.0	96.0	94.0	92.0	92.0	92.0	92.0	93.0	94.0	93.0	91.0	89.0	86.0	84.0	81.0	80.0	80.0	80.0	80.0	81.0	80.0	79.0	78.0	76.0	75.0	74.0	74.0	75.0	76.0	77.0	77.0	76.0	75.0	74.0	72.0	71.0	71.0	72.0	74.0	78.0	82.0	86.0	91.0	95.0	98.0	101.0	103.0	106.0	108.0	110.0	112.0	112.0	113.0	113.0	112.0	112.0	113.0	114.0	117.0	120.0	123.0	126.0	128.0	130.0	130.0	129.0	127.0	126.0	124.0	123.0	122.0	120.0	118.0	114.0	108.0	100.0	92.0	86.0	80.0	77.0	76.0	76.0	77.0	79.0	81.0	83.0	86.0	89.0	91.0	93.0	95.0	97.0	98.0	98.0	99.0	98.0	97.0	96.0	94.0	92.0	89.0	88.0	89.0	90.0	92.0	95.0	98.0	102.0	106.0	110.0	114.0	116.0	117.0	116.0	113.0	109.0	103.0	98.0	93.0	88.0	84.0	80.0	77.0	75.0	74.0	72.0	72.0	72.0	73.0	76.0	80.0	85.0	90.0	96.0	101.0	106.0	111.0	114.0	116.0	117.0	117.0	116.0	115.0	114.0	113.0	111.0	110.0	110.0	111.0	112.0	114.0	116.0	119.0	121.0	123.0	125.0	127.0	129.0	131.0	133.0	134.0	133.0	129.0	124.0	114.0	103.0	93.0	84.0	78.0	75.0	74.0	75.0	78.0	81.0	85.0	89.0	93.0	97.0	102.0	106.0	109.0	112.0	113.0	113.0	111.0	108.0	104.0	101.0	97.0	94.0	92.0	90.0	89.0	90.0	92.0	95.0	97.0	99.0	100.0	100.0	99.0	96.0	92.0	89.0	85.0	81.0	78.0	75.0	72.0	70.0	69.0	68.0	67.0	66.0	63.0	61.0	58.0	55.0	55.0	56.0	60.0	66.0	72.0	78.0	83.0	88.0	91.0	92.0	92.0	90.0	87.0	84.0	81.0	80.0	79.0	81.0	83.0	87.0	91.0	97.0	102.0	108.0	114.0	119.0	123.0	124.0	125.0	124.0	124.0	125.0	127.0	128.0	129.0	128.0	126.0	120.0	113.0	106.0	100.0	97.0	95.0	95.0	95.0	96.0	96.0	95.0	95.0	95.0	97.0	100.0	104.0	108.0	110.0	112.0	112.0	111.0	110.0	109.0	108.0	107.0	107.0	106.0	105.0	104.0	105.0	105.0	106.0	108.0	109.0	110.0	110.0	110.0	110.0	110.0	110.0	109.0	108.0	107.0	106.0	104.0	103.0	103.0	102.0	100.0	96.0	92.0	86.0	79.0	74.0	70.0	69.0	71.0	75.0	81.0	88.0	95.0	102.0	108.0	114.0	117.0	118.0	118.0	115.0	112.0	108.0	104.0	99.0	95.0	91.0	87.0	83.0	81.0	79.0	78.0	78.0	79.0	81.0	84.0	89.0	97.0	105.0	114.0	122.0	127.0	127.0	127.0	123.0	118.0	112.0	107.0	101.0	97.0	93.0	91.0	91.0	92.0	91.0	89.0	84.0	77.0	72.0	71.0	75.0	82.0	92.0	101.0	109.0	114.0	119.0	123.0	127.0	130.0	133.0	134.0	133.0	131.0	129.0	127.0	126.0	123.0	120.0	116.0	112.0	106.0	100.0	92.0	84.0	77.0	71.0	66.0	65.0	65.0	66.0	67.0	67.0	66.0	64.0	61.0	58.0	57.0	59.0	62.0	67.0	73.0	78.0	82.0	86.0	90.0	92.0	95.0	96.0	98.0	98.0	99.0	98.0	98.0	97.0	96.0	95.0	94.0	93.0	92.0	92.0	92.0	94.0	98.0	103.0	110.0	117.0	125.0	130.0	133.0	134.0	132.0	128.0	124.0	119.0	116.0	113.0	111.0	110.0	109.0	108.0	107.0	107.0	106.0	106.0	106.0	106.0	107.0	108.0	109.0	109.0	108.0	107.0	106.0	104.0	102.0	101.0	100.0	99.0	99.0	98.0	99.0	99.0	99.0	99.0	99.0	98.0	97.0	96.0	95.0	94.0	94.0	95.0	97.0	99.0	102.0	104.0	107.0	108.0	107.0	105.0	102.0	100.0	98.0	97.0	97.0	98.0	100.0	102.0	103.0	104.0	105.0	106.0	106.0	107.0	107.0	108.0	109.0	111.0	112.0	112.0	112.0	112.0	111.0	111.0	111.0	111.0	111.0	110.0	108.0	105.0	102.0	98.0	96.0	95.0	95.0	96.0	96.0	95.0	92.0	89.0	85.0	82.0	82.0	83.0	86.0	90.0	94.0	98.0	100.0	101.0	101.0	101.0	101.0	102.0	104.0	108.0	112.0	115.0	116.0	117.0	116.0	114.0	112.0	111.0	110.0	109.0	108.0	107.0	106.0	106.0	106.0	107.0	108.0	109.0	110.0	109.0	107.0	105.0	101.0	97.0	93.0	89.0	86.0	83.0	81.0	81.0	81.0	83.0	83.0	84.0	83.0	81.0	80.0	79.0	80.0	82.0	85.0	89.0	93.0	96.0	98.0	100.0	102.0	105.0	107.0	109.0	112.0	113.0	113.0	112.0	110.0	107.0	104.0	102.0	100.0	99.0	99.0	98.0	97.0	97.0	97.0	98.0	99.0	99.0	97.0	92.0	85.0	78.0	72.0	67.0	63.0	62.0	62.0	63.0	64.0	66.0	69.0	72.0	75.0	79.0	83.0	86.0	89.0	91.0	93.0	94.0	95.0	97.0	98.0	98.0	98.0	99.0	101.0	102.0	102.0	102.0	102.0	102.0	102.0	103.0	105.0	107.0	110.0	112.0	113.0	114.0	114.0	114.0	114.0	116.0	119.0	122.0	124.0	126.0	126.0	126.0	126.0	126.0	126.0	127.0	126.0	123.0	117.0	109.0	100.0	91.0	84.0	79.0	77.0	77.0	78.0	81.0	84.0	88.0	92.0	97.0	102.0	106.0	109.0	111.0	111.0	111.0	109.0	107.0	105.0	103.0	101.0	99.0	98.0	97.0	96.0	95.0	94.0	94.0	94.0	94.0	95.0	97.0	99.0	101.0	103.0	105.0	105.0	105.0	103.0	101.0	99.0	97.0	96.0	96.0	96.0	98.0	100.0	101.0	102.0	102.0	99.0	95.0	91.0	88.0	86.0	85.0	86.0	87.0	88.0	88.0	87.0	87.0	87.0	87.0	87.0	88.0	88.0	88.0	86.0	85.0	83.0	83.0	83.0	85.0	88.0	91.0	94.0	97.0	102.0	108.0	115.0	121.0	126.0	127.0	125.0	119.0	111.0	103.0	95.0	89.0	85.0	82.0	81.0	80.0	80.0	81.0	84.0	88.0	92.0	97.0	101.0	104.0	105.0	106.0	105.0	104.0	103.0	102.0	102.0	101.0	101.0	101.0	100.0	100.0	100.0	100.0	100.0	101.0	101.0	100.0	100.0	99.0	100.0	101.0	102.0	104.0	105.0	106.0	107.0	106.0	106.0	105.0	103.0	102.0	100.0	98.0	97.0	95.0	95.0	95.0	95.0	96.0	97.0	99.0	100.0	101.0	102.0	102.0	101.0	101.0	100.0	99.0	98.0	97.0	96.0	95.0	93.0	93.0	93.0	95.0	98.0	104.0	111.0	117.0	123.0	127.0	130.0	132.0	132.0	130.0	128.0	127.0	124.0	120.0	117.0	113.0	109.0	105.0	102.0	100.0	98.0	97.0	97.0	99.0	101.0	104.0	107.0	109.0	111.0	111.0	110.0	108.0	106.0	103.0	101.0	98.0	95.0	93.0	90.0	88.0	86.0	86.0	87.0	89.0	91.0	92.0	92.0	92.0	92.0	92.0	91.0	91.0	89.0	86.0	84.0	82.0	82.0	82.0	83.0	85.0	87.0	88.0	90.0	91.0	92.0	92.0	92.0	91.0	90.0	90.0	91.0	92.0	95.0	97.0	99.0	100.0	101.0	101.0	101.0	102.0	103.0	103.0	103.0	103.0	102.0	101.0	99.0	97.0	96.0	96.0	97.0	98.0	100.0	102.0	104.0	106.0	108.0	111.0	113.0	115.0	115.0	114.0	111.0	106.0	101.0	97.0	94.0	94.0	95.0	97.0	98.0	99.0	99.0	100.0	101.0	102.0	104.0	106.0	108.0	109.0	108.0	107.0	105.0	103.0	101.0	100.0	99.0	99.0	99.0	100.0	100.0	100.0	101.0	102.0	102.0	103.0	104.0	105.0	105.0	104.0	103.0	101.0	100.0	98.0	96.0	95.0	94.0	93.0	92.0	92.0	92.0	93.0	95.0	97.0	99.0	101.0	102.0	103.0	103.0	103.0	103.0	102.0	102.0	101.0	100.0	98.0	97.0	96.0	95.0	95.0	96.0	97.0	99.0	101.0	102.0	103.0	102.0	102.0	102.0	103.0	104.0	106.0	108.0	109.0	109.0	109.0	108.0	107.0	108.0	109.0	110.0	111.0	111.0	109.0	105.0	100.0	95.0	92.0	91.0	92.0	94.0	98.0	101.0	103.0	106.0	108.0	110.0	111.0	112.0	111.0	110.0	107.0	104.0	101.0	98.0	96.0	94.0	93.0	92.0	92.0	93.0	93.0	94.0	95.0	97.0	98.0	99.0	100.0	100.0	101.0	101.0	101.0	100.0	98.0	96.0	94.0	91.0	89.0	88.0	87.0	87.0	87.0	87.0	87.0	87.0	88.0	89.0	92.0	95.0	99.0	103.0	107.0	109.0	110.0	109.0	108.0	106.0	103.0	101.0	99.0	98.0	97.0	97.0	98.0	99.0	101.0	102.0	104.0	106.0	108.0	110.0	111.0	112.0	111.0	111.0	109.0	108.0	108.0	108.0	109.0	110.0	111.0	110.0	108.0	104.0	99.0	94.0	90.0	88.0	87.0	86.0	87.0	87.0	89.0	91.0	94.0	98.0	102.0	105.0	107.0	108.0	107.0	106.0	104.0	103.0	101.0	99.0	97.0	95.0	93.0	92.0	91.0	91.0	91.0	91.0	91.0	91.0	91.0	91.0	91.0	91.0	92.0	92.0	93.0	93.0	93.0	93.0	92.0	91.0	89.0	87.0	85.0	83.0	81.0	79.0	78.0	78.0	79.0	80.0	82.0	84.0	87.0	92.0	96.0	101.0	104.0	107.0	109.0	110.0	110.0	110.0	110.0	110.0	111.0	113.0	115.0	117.0	118.0	119.0	120.0	121.0	123.0	127.0	129.0	133.0	136.0	140.0	143.0	146.0	149.0	149.0	148.0	144.0	136.0	127.0	115.0	103.0	92.0	84.0	79.0	77.0	78.0	81.0	85.0	90.0	96.0	101.0	106.0	109.0	113.0	115.0	117.0	117.0	117.0	116.0	113.0	110.0	105.0	100.0	95.0	90.0	85.0	81.0	77.0	74.0	72.0	70.0	68.0	67.0	65.0	64.0	62.0	60.0	57.0	54.0	52.0	51.0	51.0	52.0	54.0	57.0	59.0	62.0	64.0	66.0	68.0	69.0	71.0	73.0	75.0	77.0	78.0	80.0	80.0	81.0	83.0	85.0	87.0	90.0	93.0	96.0	99.0	101.0	104.0	106.0	109.0	112.0	116.0	120.0	125.0	130.0	137.0	145.0	153.0	161.0	168.0	174.0	179.0	182.0	184.0	183.0	181.0	178.0	174.0	168.0	161.0	152.0	141.0	129.0	117.0	104.0	93.0	83.0	75.0	70.0	69.0	69.0	72.0	77.0	81.0	86.0	91.0	96.0	101.0	104.0	107.0	108.0	108.0	106.0	103.0	99.0	95.0	91.0	88.0	84.0	82.0	79.0	76.0	73.0	71.0	68.0	65.0	62.0	58.0	55.0	52.0	50.0	47.0	46.0	46.0	47.0	49.0	51.0	54.0	57.0	58.0	59.0	59.0	59.0	58.0	57.0	57.0	58.0	60.0	63.0	67.0	72.0	78.0	84.0	90.0	95.0	98.0	100.0	102.0	102.0	102.0	103.0	103.0	105.0	107.0	110.0	114.0	119.0	124.0	129.0	135.0	143.0	151.0	159.0	166.0	171.0	173.0	173.0	172.0	170.0	167.0	164.0	161.0	157.0	154.0	150.0	146.0	141.0	136.0	131.0	127.0	125.0	123.0	123.0	124.0	125.0	127.0	128.0	130.0	133.0	134.0	136.0	136.0	134.0	130.0	126.0	120.0	112.0	104.0	95.0	87.0	79.0	72.0	66.0	62.0	60.0	60.0	63.0	67.0	72.0	77.0	82.0	86.0	88.0	90.0	91.0	92.0	92.0	91.0	90.0	88.0	85.0	81.0	77.0	73.0	70.0	67.0	66.0	66.0	68.0	70.0	75.0	81.0	88.0	97.0	105.0	113.0	118.0	122.0	124.0	124.0	124.0	122.0	119.0	117.0	114.0	111.0	109.0	106.0	104.0	101.0	100.0	99.0	99.0	100.0	101.0	101.0	100.0	99.0	97.0	96.0	96.0	97.0	98.0	100.0	100.0	100.0	98.0	94.0	90.0	86.0	83.0	82.0	82.0	83.0	86.0	89.0	94.0	100.0	106.0	113.0	118.0	121.0	122.0	120.0	117.0	113.0	109.0	105.0	102.0	99.0	98.0	97.0	98.0	98.0	99.0	101.0	102.0	103.0	103.0	103.0	102.0	100.0	98.0	95.0	92.0	88.0	85.0	82.0	81.0	82.0	85.0	90.0	94.0	97.0	96.0	91.0	83.0	75.0	69.0	66.0	67.0	70.0	73.0	76.0	78.0	80.0	83.0	86.0	90.0	93.0	97.0	100.0	102.0	103.0	105.0	105.0	106.0	107.0	109.0	110.0	111.0	111.0	111.0	110.0	109.0	110.0	112.0	115.0	118.0	121.0	122.0	121.0	117.0	111.0	104.0	97.0	90.0	85.0	81.0	79.0	80.0	83.0	89.0	98.0	108.0	118.0	127.0	134.0	138.0	140.0	138.0	134.0	127.0	120.0	112.0	105.0	99.0	95.0	92.0	89.0	88.0	87.0	87.0	88.0	89.0	91.0	92.0	94.0	94.0	94.0	93.0	92.0	91.0	91.0	90.0	89.0	88.0	86.0	83.0	81.0	80.0	79.0	80.0	81.0	83.0	85.0	87.0	88.0	89.0	89.0	89.0	88.0	87.0	86.0	86.0	85.0	85.0	85.0	84.0	84.0	84.0	85.0	87.0	90.0	93.0	95.0	98.0	99.0	100.0	102.0	104.0	106.0	108.0	109.0	108.0	104.0	98.0	91.0	84.0	78.0	74.0	73.0	74.0	77.0	80.0	84.0	88.0	91.0	94.0	96.0	98.0	99.0	100.0	100.0	100.0	100.0	99.0	98.0	97.0	96.0	95.0	93.0	92.0	92.0	93.0	94.0	95.0	97.0	99.0	101.0	101.0	101.0	102.0	102.0	102.0	102.0	103.0	103.0	103.0	102.0	101.0	100.0	98.0	96.0	95.0	93.0	92.0	92.0	93.0	95.0	98.0	101.0	104.0	106.0	107.0	107.0	107.0	107.0	107.0	108.0	109.0	111.0	113.0	115.0	117.0	119.0	120.0	121.0	123.0	124.0	125.0	125.0	125.0	123.0	121.0	118.0	115.0	114.0	113.0	113.0	113.0	112.0	109.0	106.0	101.0	97.0	93.0	90.0	87.0	86.0	85.0	85.0	87.0	89.0	93.0	98.0	102.0	106.0	109.0	111.0	111.0	110.0	109.0	107.0	104.0	102.0	99.0	96.0	94.0	92.0	90.0	90.0	90.0	91.0	92.0	94.0	95.0	96.0	97.0	98.0	98.0	98.0	97.0	96.0	96.0	95.0	94.0	93.0	93.0	92.0	92.0	91.0	91.0	91.0	92.0	93.0	95.0	99.0	102.0	106.0	108.0	109.0	109.0	108.0	106.0	105.0	104.0	104.0	105.0	105.0	107.0	108.0	110.0	112.0	114.0	117.0	119.0	120.0	120.0	118.0	116.0	114.0	113.0	113.0	114.0	116.0	118.0	117.0	115.0	112.0	107.0	102.0	97.0	93.0	90.0	88.0	86.0	86.0	86.0	88.0	91.0	95.0	100.0	105.0	108.0	110.0	110.0	107.0	104.0	100.0	96.0	93.0	89.0	87.0	84.0	83.0	82.0	83.0	84.0	85.0	87.0	90.0	93.0	96.0	100.0	102.0	103.0	102.0	99.0	95.0	92.0	89.0	88.0	87.0	88.0	89.0	89.0	89.0	87.0	83.0	79.0	74.0	71.0	70.0	70.0	72.0	75.0	79.0	85.0	90.0	95.0	99.0	101.0	102.0	102.0	102.0	102.0	103.0	105.0	107.0	109.0	112.0	113.0	115.0	117.0	119.0	121.0	123.0	123.0	124.0	125.0	126.0	127.0	130.0	134.0	137.0	140.0	141.0	140.0	135.0	127.0	119.0	111.0	103.0	97.0	93.0	90.0	88.0	89.0	91.0	95.0	100.0	105.0	109.0	112.0	112.0	111.0	108.0	104.0	99.0	95.0	92.0	89.0	87.0	85.0	84.0	83.0	83.0	83.0	84.0	86.0	89.0	92.0	95.0	97.0	99.0	101.0	102.0	103.0	103.0	101.0	99.0	95.0	90.0	85.0	81.0	78.0	76.0	74.0	73.0	71.0	70.0	69.0	69.0	69.0	70.0	73.0	77.0	82.0	88.0	94.0	99.0	103.0	105.0	107.0	108.0	108.0	107.0	107.0	107.0	108.0	109.0	111.0	112.0	113.0	116.0	119.0	123.0	127.0	133.0	138.0	142.0	145.0	146.0	147.0	146.0	144.0	142.0	138.0	133.0	127.0	120.0	111.0	102.0	94.0	88.0	83.0	81.0	81.0	82.0	86.0	91.0	97.0	103.0	108.0	110.0	110.0	109.0	105.0	101.0	97.0	94.0	91.0	90.0	90.0	90.0	91.0	91.0	92.0	91.0	91.0	91.0	90.0	90.0	89.0	89.0	89.0	89.0	89.0	90.0	91.0	92.0	93.0	93.0	94.0	94.0	94.0	92.0	90.0	86.0	82.0	77.0	73.0	70.0	68.0	67.0	67.0	68.0	69.0	72.0	77.0	84.0	92.0	100.0	107.0	113.0	116.0	117.0	118.0	118.0	118.0	118.0	118.0	118.0	116.0	114.0	112.0	110.0	109.0	109.0	109.0	109.0	110.0	111.0	111.0	112.0	113.0	114.0	114.0	114.0	114.0	113.0	111.0	110.0	108.0	104.0	100.0	93.0	86.0	78.0	70.0	63.0	58.0	55.0	54.0	56.0	60.0	67.0	75.0	84.0	93.0	101.0	106.0	109.0	110.0	109.0	107.0	104.0	100.0	95.0	91.0	86.0	81.0	77.0	73.0	70.0	68.0	67.0	68.0	71.0	74.0	78.0	81.0	83.0	83.0	81.0	79.0	76.0	72.0	69.0	65.0	61.0	59.0	58.0	59.0	61.0	64.0	68.0	71.0	74.0	77.0	81.0	84.0	88.0	91.0	94.0	97.0	99.0	101.0	103.0	106.0	108.0	111.0	114.0	117.0	119.0	120.0	121.0	122.0	122.0	122.0	122.0	121.0	121.0	121.0	121.0	121.0	122.0	125.0	127.0	132.0	137.0	143.0	148.0	152.0	156.0	159.0	163.0	167.0	172.0	177.0	181.0	184.0	185.0	184.0	182.0	178.0	175.0	171.0	166.0	160.0	154.0	147.0	140.0	134.0	128.0	124.0	120.0	116.0	112.0	108.0	104.0	100.0	96.0	93.0	90.0	87.0	85.0	83.0	82.0	81.0	80.0	79.0	79.0	78.0	78.0	78.0	77.0	77.0	76.0	75.0	74.0	75.0	77.0	80.0	83.0	86.0	89.0	91.0	93.0	96.0	99.0	103.0	107.0	109.0	109.0	107.0	103.0	98.0	92.0	87.0	82.0	78.0	76.0	74.0	75.0	78.0	82.0	86.0	92.0	96.0	101.0	105.0	108.0	111.0	114.0	115.0	116.0	115.0	111.0	107.0	101.0	95.0	89.0	83.0	78.0	73.0	68.0	65.0	62.0	61.0	62.0	63.0	65.0	66.0	67.0	66.0	64.0	61.0	59.0	57.0	56.0	55.0	55.0	56.0	58.0	60.0	62.0	63.0	64.0	65.0	67.0	69.0	71.0	75.0	80.0	85.0	90.0	94.0	98.0	100.0	101.0	102.0	103.0	103.0	104.0	104.0	104.0	103.0	104.0	104.0	105.0	107.0	109.0	110.0	112.0	115.0	117.0	119.0	120.0	120.0	120.0	120.0	120.0	120.0	122.0	122.0	121.0	119.0	116.0	113.0	112.0	114.0	118.0	122.0	125.0	124.0	120.0	113.0	106.0	99.0	93.0	91.0	90.0	90.0	91.0	91.0	90.0	89.0	89.0	89.0	90.0	90.0	91.0	91.0	92.0	91.0	90.0	89.0	87.0	86.0	85.0	84.0	84.0	84.0	83.0	83.0	82.0	82.0	82.0	82.0	82.0	82.0	83.0	85.0	86.0	89.0	91.0	94.0	96.0	99.0	100.0	102.0	103.0	105.0	107.0	110.0	114.0	118.0	121.0	123.0	124.0	123.0	121.0	117.0	113.0	109.0	104.0	101.0	98.0	97.0	96.0	96.0	97.0	97.0	97.0	96.0	95.0	94.0	94.0	94.0	95.0	96.0	99.0	101.0	103.0	104.0	105.0	106.0	106.0	105.0	104.0	102.0	100.0	97.0	94.0	91.0	89.0	88.0	89.0	91.0	95.0	100.0	106.0	111.0	115.0	118.0	119.0	119.0	117.0	116.0	115.0	113.0	112.0	110.0	108.0	105.0	103.0	101.0	98.0	96.0	95.0	93.0	91.0	89.0	88.0	87.0	87.0	88.0	89.0	90.0	90.0	89.0	87.0	87.0	88.0	92.0	98.0	104.0	109.0	112.0	112.0	110.0	107.0	103.0	99.0	96.0	95.0	95.0	95.0	96.0	97.0	98.0	99.0	100.0	101.0	103.0	103.0	103.0	102.0	103.0	104.0	107.0	110.0	112.0	115.0	116.0	116.0	116.0	115.0	114.0	115.0	116.0	119.0	121.0	124.0	125.0	126.0	124.0	121.0	118.0	113.0	109.0	105.0	101.0	97.0	93.0	89.0	85.0	81.0	77.0	75.0	73.0	74.0	76.0	78.0	79.0	79.0	77.0	76.0	75.0	76.0	78.0	81.0	85.0	88.0	91.0	94.0	97.0	98.0	98.0	98.0	97.0	95.0	94.0	93.0	92.0	92.0	91.0	92.0	93.0	96.0	100.0	103.0	105.0	106.0	105.0	103.0	102.0	104.0	108.0	114.0	121.0	127.0	129.0	131.0	129.0	127.0	125.0	123.0	121.0	119.0	118.0	117.0	117.0	116.0	115.0	114.0	113.0	112.0	110.0	108.0	105.0	101.0	97.0	93.0	90.0	89.0	88.0	88.0	88.0	87.0	85.0	82.0	78.0	76.0	75.0	76.0	78.0	82.0	85.0	88.0	90.0	90.0	89.0	88.0	87.0	85.0	82.0	80.0	79.0	82.0	88.0	98.0	107.0	112.0	110.0	101.0	88.0	75.0	67.0	64.0	66.0	70.0	74.0	76.0	77.0	77.0	78.0	82.0	87.0	94.0	102.0	108.0	113.0	116.0	117.0	117.0	115.0	112.0	108.0	105.0	103.0	102.0	102.0	103.0	103.0	104.0	105.0	108.0	112.0	117.0	123.0	127.0	131.0	133.0	132.0	129.0	125.0	118.0	112.0	105.0	101.0	98.0	99.0	101.0	105.0	109.0	113.0	115.0	117.0	119.0	120.0	120.0	119.0	118.0	116.0	115.0	113.0	111.0	109.0	105.0	101.0	96.0	91.0	86.0	82.0	78.0	75.0	72.0	70.0	67.0	65.0	63.0	62.0	61.0	60.0	59.0	57.0	56.0	54.0	52.0	50.0	47.0	43.0	40.0	38.0	39.0	41.0	46.0	51.0	56.0	61.0	65.0	69.0	72.0	76.0	80.0	85.0	90.0	95.0	102.0	109.0	116.0	123.0	128.0	133.0	139.0	145.0	152.0	159.0	166.0	172.0	178.0	183.0	188.0	194.0	199.0	204.0	207.0	208.0	206.0	202.0	194.0	182.0	168.0	152.0	138.0	127.0	119.0	114.0	111.0	109.0	107.0	105.0	102.0	100.0	96.0	93.0	90.0	87.0	86.0	85.0	85.0	85.0	85.0	87.0	90.0	95.0	100.0	104.0	105.0	105.0	102.0	98.0	94.0	89.0	83.0	77.0	71.0	66.0	62.0	60.0	58.0	57.0	57.0	57.0	58.0	59.0	61.0	62.0	64.0	67.0	68.0	69.0	69.0	67.0	64.0	63.0	62.0	64.0	66.0	70.0	75.0	81.0	89.0	98.0	108.0	118.0	128.0	138.0	149.0	159.0	168.0	177.0	182.0	185.0	184.0	182.0	177.0	171.0	165.0	158.0	152.0	145.0	139.0	134.0	130.0	127.0	125.0	121.0	117.0	112.0	107.0	102.0	97.0	92.0	87.0	82.0	78.0	74.0	71.0	67.0	64.0	62.0	60.0	60.0	62.0	67.0	75.0	86.0	99.0	113.0	127.0	137.0	145.0	150.0	152.0	152.0	149.0	145.0	140.0	135.0	129.0	125.0	121.0	118.0	115.0	113.0	110.0	108.0	106.0	104.0	102.0	100.0	98.0	97.0	95.0	94.0	92.0	90.0	87.0	83.0	78.0	73.0	68.0	64.0	61.0	60.0	61.0	61.0	61.0	58.0	54.0	52.0	51.0	53.0	58.0	66.0	76.0	86.0	97.0	108.0	121.0	133.0	148.0	162.0	174.0	180.0	180.0	172.0	157.0	139.0	121.0	104.0	90.0	81.0	76.0	75.0	75.0	75.0	76.0	77.0	77.0	76.0	75.0	73.0	70.0	69.0	68.0	69.0	70.0	71.0	71.0	70.0	67.0	63.0	58.0	54.0	51.0	50.0	50.0	51.0	55.0	59.0	63.0	68.0	71.0	73.0	73.0	74.0	74.0	75.0	74.0	71.0	65.0	56.0	46.0	36.0	26.0	18.0	12.0	6.0	1.0	0.0	0.0	0.0	0.0	0.0	0.0	0.0	0.0	0.0	3.0	5.0	7.0	10.0	14.0	19.0	25.0	30.0	34.0	35.0	37.0	40.0	46.0	53.0	63.0	74.0	86.0	97.0	106.0	115.0	121.0	127.0	130.0	135.0	139.0	143.0	147.0	151.0	155.0	157.0	158.0	159.0	160.0	161.0	163.0	166.0	170.0	174.0	178.0	181.0	183.0	184.0	184.0	184.0	182.0	179.0	175.0	169.0	163.0	157.0	150.0	145.0	141.0	138.0	137.0	136.0	136.0	135.0	135.0	135.0	135.0	136.0	138.0	139.0	140.0	140.0	138.0	135.0	132.0	129.0	126.0	124.0	122.0	120.0	118.0	117.0	116.0	115.0	114.0	113.0	113.0	114.0	114.0	114.0	115.0	115.0	114.0	114.0	112.0	111.0	109.0	107.0	107.0	107.0	108.0	110.0	111.0	111.0	109.0	106.0	101.0	97.0	93.0	91.0	90.0	90.0	90.0	90.0	90.0	91.0	92.0	94.0	96.0	99.0	104.0	108.0	113.0	117.0	120.0	120.0	120.0	119.0	117.0	116.0	115.0	114.0	113.0	112.0	110.0	108.0	108.0	109.0	112.0	116.0	119.0	120.0	120.0	118.0	114.0	109.0	104.0	99.0	95.0	93.0	91.0	90.0	89.0	90.0	91.0	92.0	94.0	96.0	97.0	98.0	98.0	97.0	97.0	96.0	95.0	94.0	94.0	93.0	92.0	91.0	89.0	88.0	86.0	85.0	85.0	85.0	85.0	85.0	86.0	86.0	86.0	87.0	88.0	90.0	92.0	95.0	98.0	100.0	101.0	101.0	99.0	96.0	92.0	88.0	84.0	81.0	79.0	78.0	78.0	78.0	80.0	82.0	83.0	85.0	86.0	87.0	87.0	88.0	89.0	90.0	91.0	93.0	95.0	97.0	102.0	108.0	116.0	126.0	135.0	146.0	157.0	166.0	173.0	178.0	180.0	180.0	179.0	177.0	175.0	173.0	170.0	167.0	161.0	154.0	146.0	136.0	126.0	117.0	110.0	105.0	103.0	103.0	104.0	106.0	108.0	111.0	113.0	113.0	111.0	108.0	104.0	100.0	98.0	98.0	98.0	97.0	94.0	89.0	82.0	73.0	65.0	58.0	54.0	51.0	51.0	51.0	51.0	50.0	48.0	46.0	45.0	44.0	44.0	45.0	46.0	48.0	50.0	51.0	53.0	54.0	55.0	56.0	57.0	58.0	60.0	61.0	63.0	66.0	69.0	73.0	77.0	83.0	89.0	96.0	101.0	106.0	111.0	115.0	120.0	125.0	129.0	133.0	137.0	139.0	141.0	142.0	142.0	141.0	140.0	138.0	136.0	135.0	134.0	133.0	133.0	132.0	129.0	127.0	121.0	115.0	109.0	102.0	97.0	92.0	88.0	85.0	81.0	76.0	69.0	60.0	52.0	47.0	46.0	48.0	52.0	58.0	65.0	74.0	86.0	97.0	107.0	114.0	115.0	111.0	105.0	97.0	89.0	83.0	79.0	76.0	74.0	72.0	71.0	70.0	68.0	66.0	65.0	64.0	64.0	64.0	64.0	63.0	61.0	59.0	58.0	57.0	58.0	58.0	58.0	58.0	57.0	55.0	51.0	47.0	42.0	38.0	35.0	35.0	37.0	40.0	46.0	52.0	59.0	67.0	76.0	85.0	94.0	102.0	108.0	113.0	117.0	120.0	122.0	125.0	127.0	130.0	134.0	137.0	141.0	145.0	149.0	155.0	161.0	169.0	177.0	185.0	192.0	198.0	202.0	203.0	203.0	200.0	194.0	188.0	180.0	173.0	167.0	162.0	158.0	154.0	150.0	145.0	141.0	137.0	134.0	133.0	133.0	134.0	135.0	135.0	135.0	133.0	129.0	125.0	120.0	113.0	106.0	99.0	92.0	86.0	80.0	76.0	73.0	70.0	69.0	67.0	66.0	66.0	66.0	67.0	69.0	71.0	73.0	75.0	76.0	77.0	77.0	79.0	81.0	86.0	91.0	96.0	100.0	102.0	102.0	100.0	96.0	92.0	88.0	84.0	81.0	80.0	81.0	83.0	87.0	92.0	96.0	100.0	103.0	105.0	107.0	109.0	109.0	109.0	106.0	100.0	90.0	75.0	55.0	29.0	0.0	0.0	0.0	0.0	0.0	0.0	0.0	0.0	0.0	0.0	0.0	0.0	0.0	0.0	0.0	0.0	0.0	0.0	0.0	0.0	0.0	0.0	0.0	0.0	0.0	0.0	0.0	0.0	0.0	0.0	8.0	17.0	25.0	34.0	42.0	51.0	61.0	71.0	83.0	95.0	107.0	119.0	130.0	144.0	159.0	175.0	191.0	205.0	215.0	222.0	224.0	224.0	223.0	222.0	223.0	227.0	232.0	239.0	245.0	250.0	252.0	251.0	246.0	239.0	230.0	221.0	213.0	205.0	200.0	197.0	196.0	197.0	199.0	203.0	208.0	214.0	220.0	226.0	231.0	235.0	239.0	242.0	246.0	250.0	254.0	254.0	254.0	254.0	254.0	253.0	248.0	240.0	232.0	222.0	210.0	198.0	187.0	176.0	166.0	159.0	155.0	153.0	153.0	154.0	156.0	157.0	156.0	153.0	149.0	144.0	139.0	135.0	134.0	134.0	136.0	137.0	137.0	136.0	135.0	132.0	130.0	127.0	123.0	121.0	123.0	128.0	139.0	152.0	163.0	170.0	172.0	169.0	165.0	162.0	162.0	162.0	162.0	159.0	154.0	147.0	138.0	130.0	123.0	116.0	110.0	104.0	98.0	92.0	86.0	81.0	77.0	72.0	69.0	66.0	65.0	68.0	74.0	83.0	92.0	98.0	86.0	86.0	86.0	86.0	86.0	85.0	82.0	78.0	73.0	68.0	64.0	62.0	61.0	62.0	64.0	66.0	68.0	71.0	73.0	76.0	79.0	81.0	81.0	79.0	78.0	77.0	77.0	79.0	79.0	79.0	77.0	76.0	77.0	82.0	90.0	102.0	113.0	121.0	125.0	123.0	118.0	111.0	103.0	95.0	87.0	80.0	73.0	67.0	63.0	63.0	68.0	80.0	97.0	116.0	130.0	138.0	138.0	129.0	118.0	104.0	92.0	81.0	74.0	68.0	65.0	65.0	67.0	69.0	72.0	76.0	82.0	89.0	97.0	106.0	113.0	118.0	121.0	120.0	118.0	114.0	109.0	105.0	101.0	96.0	93.0	89.0	86.0	83.0	83.0	83.0	85.0	87.0	88.0	88.0	85.0	81.0	76.0	70.0	66.0	62.0	61.0	60.0	61.0	63.0	66.0	70.0	74.0	78.0	81.0	83.0	84.0	85.0	87.0	91.0	96.0	100.0	101.0	101.0	98.0	97.0	98.0	102.0	107.0	110.0	111.0	110.0	106.0	102.0	97.0	92.0	87.0	82.0	77.0	72.0	67.0	63.0	59.0	55.0	51.0	49.0	49.0	50.0	52.0	53.0	51.0	47.0	41.0	35.0	29.0	25.0	24.0	26.0	32.0	41.0	51.0	60.0	68.0	73.0	79.0	84.0	89.0	95.0	100.0	106.0	111.0	115.0	118.0	119.0	119.0	117.0	115.0	112.0	108.0	104.0	100.0	98.0	98.0	102.0	108.0	116.0	123.0	128.0	132.0	131.0	127.0	121.0	114.0	109.0	106.0	105.0	106.0	108.0	109.0	109.0	109.0	109.0	110.0	112.0	114.0	115.0	116.0	117.0	120.0	123.0	127.0	128.0	129.0	128.0	127.0	127.0	129.0	132.0	136.0	141.0	144.0	146.0	147.0	145.0	142.0	137.0	132.0	127.0	120.0	112.0	103.0	94.0	86.0	79.0	75.0	76.0	82.0	91.0	101.0	109.0	113.0	114.0	111.0	107.0	102.0	98.0	94.0	92.0	91.0	92.0	94.0	96.0	97.0	98.0	98.0	99.0	100.0	101.0	104.0	108.0	112.0	116.0	119.0	120.0	120.0	119.0	117.0	115.0	114.0	113.0	112.0	113.0	116.0	121.0	127.0	132.0	136.0	138.0	136.0	132.0	127.0	122.0	116.0	110.0	106.0	103.0	100.0	98.0	97.0	97.0	97.0	98.0	99.0	99.0	99.0	99.0	99.0	99.0	99.0	98.0	97.0	97.0	98.0	101.0	106.0	110.0	112.0	112.0	110.0	108.0	107.0	109.0	111.0	113.0	113.0	112.0	108.0	103.0	98.0	92.0	86.0	79.0	72.0	67.0	64.0	64.0	66.0	69.0	70.0	70.0	68.0	64.0	60.0	57.0	56.0	57.0	61.0	65.0	70.0	74.0	78.0	81.0	84.0	88.0	93.0	99.0	106.0	112.0	116.0	119.0	118.0	116.0	113.0	110.0	107.0	104.0	103.0	102.0	101.0	100.0	99.0	100.0	101.0	104.0	108.0	114.0	119.0	124.0	126.0	126.0	122.0	117.0	111.0	105.0	100.0	96.0	93.0	91.0	89.0	88.0	88.0	90.0	93.0	97.0	101.0	105.0	110.0	115.0	120.0	126.0	129.0	130.0	130.0	127.0	123.0	118.0	113.0	108.0	103.0	98.0	95.0	93.0	93.0	93.0	92.0	91.0	89.0	87.0	84.0	81.0	77.0	74.0	71.0	69.0	67.0	65.0	64.0	62.0	59.0	56.0	54.0	53.0	53.0	55.0	57.0	59.0	62.0	65.0	68.0	70.0	72.0	74.0	76.0	78.0	82.0	86.0	90.0	94.0	98.0	100.0	102.0	103.0	104.0	106.0	109.0	112.0	116.0	121.0	126.0	130.0	135.0	141.0	147.0	152.0	156.0	159.0	158.0	155.0	149.0	143.0	137.0	132.0	129.0	127.0	127.0	129.0	131.0	134.0	137.0	139.0	139.0	138.0	135.0	130.0	125.0	119.0	112.0	107.0	103.0	99.0	96.0	92.0	87.0	82.0	74.0	65.0	56.0	46.0	37.0	30.0	26.0	24.0	24.0	25.0	27.0	29.0	31.0	33.0	36.0	40.0	44.0	50.0	55.0	60.0	62.0	62.0	61.0	59.0	59.0	59.0	62.0	65.0	68.0	72.0	76.0	80.0	84.0	89.0	94.0	99.0	105.0	111.0	116.0	121.0	124.0	126.0	127.0	128.0	128.0	129.0	131.0	132.0	134.0	136.0	137.0	139.0	142.0	145.0	148.0	151.0	155.0	158.0	161.0	165.0	168.0	171.0	173.0	174.0	171.0	165.0	155.0	143.0	130.0	118.0	106.0	97.0	90.0	86.0	85.0	87.0	91.0	96.0	102.0	107.0	111.0	113.0	114.0	112.0	109.0	105.0	100.0	95.0	91.0	87.0	83.0	79.0	75.0	71.0	68.0	66.0	67.0	69.0	72.0	75.0	78.0	81.0	83.0	85.0	87.0	87.0	86.0	84.0	81.0	79.0	78.0	78.0	79.0	80.0	80.0	78.0	75.0	71.0	67.0	65.0	65.0	68.0	72.0	79.0	86.0	95.0	103.0	112.0	120.0	126.0	129.0	132.0	132.0	131.0	129.0	127.0	123.0	119.0	116.0	113.0	110.0	108.0	107.0	107.0	106.0	105.0	104.0	102.0	100.0	99.0	98.0	99.0	100.0	101.0	101.0	100.0	97.0	92.0	86.0	80.0	74.0	69.0	65.0	64.0	65.0	70.0	77.0	86.0	96.0	105.0	112.0	116.0	117.0	115.0	111.0	107.0	102.0	97.0	93.0	91.0	89.0	88.0	88.0	88.0	88.0	90.0	92.0	95.0	99.0	103.0	107.0	110.0	112.0	111.0	109.0	106.0	102.0	98.0	94.0	91.0	87.0	86.0	86.0	90.0	97.0	107.0	116.0	124.0	127.0	128.0	127.0	123.0	120.0	118.0	117.0	117.0	118.0	119.0	120.0	121.0	122.0	125.0	127.0	131.0	136.0	140.0	143.0	144.0	141.0	136.0	130.0	124.0	118.0	112.0	107.0	102.0	97.0	92.0	86.0	81.0	76.0	74.0	73.0	74.0	76.0	79.0	81.0	84.0	87.0	89.0	89.0	88.0	86.0	83.0	82.0	83.0	85.0	88.0	91.0	94.0	96.0	98.0	99.0	100.0	102.0	106.0	111.0	116.0	121.0	123.0	124.0	123.0	123.0	123.0	123.0	123.0	123.0	121.0	117.0	112.0	106.0	100.0	95.0	91.0	88.0	86.0	83.0	80.0	76.0	72.0	69.0	69.0	71.0	77.0	84.0	91.0	96.0	98.0	96.0	92.0	87.0	83.0	81.0	80.0	81.0	83.0	85.0	88.0	91.0	94.0	97.0	102.0	107.0	113.0	119.0	124.0	127.0	127.0	124.0	119.0	112.0	106.0	100.0	96.0	94.0	92.0	90.0	90.0	92.0	95.0	99.0	104.0	108.0	110.0	110.0	107.0	102.0	96.0	90.0	85.0	81.0	79.0	79.0	79.0	81.0	84.0	87.0	91.0	96.0	102.0	109.0	114.0	116.0	114.0	109.0	101.0	93.0	86.0	79.0	73.0	68.0	64.0	61.0	62.0	64.0	67.0	70.0	72.0	74.0	77.0	81.0	85.0	89.0	92.0	92.0	88.0	83.0	75.0	68.0	65.0	66.0	73.0	84.0	97.0	107.0	113.0	115.0	113.0	108.0	104.0	99.0	97.0	96.0	98.0	101.0	105.0	109.0	111.0	112.0	112.0	111.0	110.0	109.0	111.0	115.0	122.0	128.0	135.0	138.0	138.0	136.0	132.0	128.0	126.0	124.0	123.0	122.0	122.0	121.0	122.0	123.0	126.0	128.0	130.0	131.0	128.0	124.0	117.0	110.0	104.0	100.0	98.0	98.0	99.0	100.0	100.0	99.0	97.0	94.0	92.0	90.0	89.0	88.0	87.0	86.0	86.0	85.0	85.0	86.0	87.0	89.0	91.0	93.0	95.0	97.0	98.0	100.0	102.0	103.0	103.0	103.0	102.0	101.0	101.0	100.0	98.0	96.0	92.0	89.0	86.0	85.0	86.0	89.0	94.0	97.0	99.0	99.0	96.0	92.0	89.0	87.0	86.0	88.0	90.0	94.0	97.0	99.0	101.0	102.0	103.0	104.0	105.0	106.0	108.0	110.0	114.0	119.0	124.0	128.0	130.0	128.0	123.0	115.0	105.0	96.0	88.0	82.0	78.0	76.0	77.0	80.0	88.0	98.0	111.0	124.0	133.0	140.0	143.0	140.0	134.0	127.0	118.0	109.0	102.0	96.0	91.0	89.0	88.0	88.0	90.0	92.0	95.0	98.0	101.0	105.0	109.0	112.0	114.0	114.0	114.0	113.0	111.0	108.0	105.0	100.0	95.0	91.0	86.0	83.0	80.0	77.0	76.0	75.0	75.0	75.0	77.0	78.0	79.0	80.0	81.0	84.0	89.0	94.0	100.0	103.0	103.0	100.0	94.0	87.0	79.0	72.0	67.0	64.0	64.0	67.0	70.0	74.0	78.0	83.0	87.0	92.0	96.0	100.0	102.0	103.0	104.0	105.0	107.0	109.0	113.0	115.0	116.0	116.0	115.0	113.0	112.0	111.0	111.0	110.0	110.0	109.0	108.0	108.0	109.0	112.0	116.0	120.0	123.0	122.0	117.0	110.0	100.0	90.0	81.0	74.0	70.0	69.0	70.0	72.0	76.0	83.0	92.0	103.0	113.0	122.0	127.0	130.0	131.0	129.0	127.0	122.0	116.0	110.0	105.0	101.0	97.0	94.0	92.0	91.0	93.0	100.0	114.0	135.0	157.0	173.0	180.0	177.0	167.0	156.0	147.0	140.0	131.0	120.0	104.0	87.0	72.0	59.0	50.0	44.0	40.0	38.0	37.0	37.0	39.0	42.0	47.0	52.0	59.0	67.0	74.0	82.0	88.0	93.0	98.0	103.0	108.0	112.0	116.0	118.0	119.0	118.0	114.0	108.0	101.0	94.0	87.0	82.0	78.0	76.0	75.0	76.0	79.0	82.0	88.0	95.0	103.0	110.0	116.0	118.0	115.0	109.0	101.0	93.0	87.0	82.0	79.0	77.0	76.0	77.0	78.0	79.0	81.0	83.0	88.0	95.0	107.0	123.0	140.0	156.0	168.0	173.0	173.0	167.0	157.0	145.0	132.0	118.0	102.0	85.0	71.0	59.0	49.0	42.0	38.0	36.0	35.0	37.0	39.0	43.0	46.0	48.0	50.0	52.0	55.0	61.0	71.0	82.0	94.0	102.0	104.0	101.0	93.0	85.0	78.0	74.0	71.0	72.0	73.0	76.0	80.0	84.0	88.0	91.0	96.0	101.0	109.0	120.0	132.0	144.0	153.0	157.0	156.0	150.0	142.0	134.0	127.0	122.0	118.0	116.0	115.0	116.0	119.0	125.0	132.0	141.0	150.0	157.0	161.0	162.0	159.0	152.0	142.0	131.0	120.0	110.0	101.0	95.0	91.0	91.0	92.0	96.0	102.0	108.0	115.0	121.0	126.0	128.0	128.0	126.0	121.0	114.0	104.0	92.0	79.0	65.0	51.0	39.0	28.0	19.0	12.0	6.0	3.0	2.0	4.0	7.0	11.0	16.0	21.0	26.0	32.0	38.0	43.0	47.0	49.0	50.0	50.0	49.0	48.0	47.0	46.0	45.0	45.0	45.0	46.0	48.0	51.0	55.0	60.0	66.0	73.0	80.0	87.0	94.0	99.0	104.0	109.0	114.0	119.0	125.0	131.0	138.0	144.0	151.0	158.0	166.0	176.0	187.0	200.0	213.0	225.0	235.0	243.0	248.0	250.0	249.0	245.0	238.0	229.0	218.0	206.0	194.0	182.0	171.0	160.0	149.0	138.0	127.0	116.0	105.0	95.0	86.0	79.0	74.0	71.0	71.0	73.0	77.0	81.0	84.0	86.0	88.0	88.0	88.0	88.0	88.0	88.0	88.0	88.0	89.0	91.0	92.0	93.0	94.0	93.0	92.0	89.0	86.0	82.0	79.0	75.0	72.0	70.0	68.0	66.0	65.0	65.0	65.0	66.0	68.0	71.0	76.0	83.0	90.0	97.0	102.0	104.0	102.0	98.0	90.0	81.0	73.0	66.0	62.0	61.0	63.0	65.0	69.0	73.0	76.0	80.0	84.0	89.0	93.0	98.0	103.0	106.0	109.0	111.0	113.0	114.0	116.0	117.0	119.0	119.0	120.0	119.0	117.0	115.0	111.0	107.0	103.0	98.0	94.0	91.0	89.0	89.0	91.0	93.0	96.0	97.0	97.0	95.0	92.0	88.0	85.0	83.0	83.0	84.0	87.0	91.0	95.0	98.0	100.0	102.0	105.0	108.0	112.0	117.0	122.0	125.0	126.0	125.0	123.0	119.0	117.0	115.0	115.0	115.0	116.0	115.0	113.0	111.0	109.0	107.0	105.0	104.0	103.0	102.0	100.0	97.0	93.0	90.0	87.0	86.0	87.0	88.0	89.0	88.0	84.0	77.0	70.0	63.0	59.0	58.0	59.0	63.0	66.0	70.0	74.0	78.0	83.0	89.0	96.0	103.0	108.0	112.0	114.0	114.0	112.0	110.0	107.0	105.0	103.0	102.0	102.0	100.0	99.0	99.0	99.0	100.0	104.0	108.0	115.0	121.0	126.0	127.0	127.0	124.0	118.0	111.0	104.0	100.0	97.0	96.0	97.0	97.0	97.0	97.0	97.0	97.0	98.0	100.0	103.0	106.0	108.0	110.0	111.0	112.0	113.0	114.0	116.0	117.0	117.0	116.0	114.0	112.0	110.0	109.0	109.0	108.0	107.0	106.0	104.0	100.0	96.0	90.0	85.0	79.0	75.0	72.0	70.0	70.0	73.0	78.0	84.0	91.0	96.0	97.0	94.0	89.0	82.0	77.0	75.0	74.0	75.0	76.0	77.0	79.0	81.0	85.0	89.0	93.0	98.0	101.0	104.0	105.0	105.0	103.0	100.0	98.0	95.0	94.0	93.0	93.0	93.0	95.0	98.0	102.0	107.0	113.0	117.0	120.0	120.0	117.0	113.0	107.0	102.0	98.0	95.0	93.0	93.0	94.0	95.0	96.0	98.0	102.0	106.0	113.0	121.0	129.0	137.0	142.0	145.0	146.0	144.0	141.0	136.0	129.0	124.0	117.0	112.0	107.0	104.0	101.0	99.0	97.0	95.0	95.0	94.0	94.0	94.0	94.0	93.0	92.0	91.0	90.0	90.0	91.0	94.0	97.0	101.0	105.0	107.0	108.0	106.0	102.0	97.0	93.0	89.0	88.0	88.0	89.0	93.0	98.0	105.0	115.0	126.0	136.0	146.0	153.0	156.0	155.0	150.0	142.0	133.0	123.0	114.0	105.0	97.0	91.0	86.0	81.0	